#  Index          Path Flux       Relative Flux
	   0 0 0
           1   9.7114118986085317E-011  0.15223304718432254     
           2   1.6606690433139691E-010  0.26032127096223989     
           3   2.2688056585983536E-010  0.35565085950782171     
           4   2.8729534719753896E-010  0.45035517597627406     
           5   3.4139771035396063E-010  0.53516434367675003     
           6   3.8427609807521259E-010  0.60237915949660314     
           7   4.2705249221341229E-010  0.66943409337443394     
           8   4.4900513816978658E-010  0.70384637268653161     
           9   4.7094623663662595E-010  0.73824055051619197     
          10   4.8330149837618825E-010  0.75760827132765240     
          11   4.9540246923687554E-010  0.77657737373257729     
          12   5.0650041331143056E-010  0.79397416280495492     
          13   5.1559636924314827E-010  0.80823269805190601     
          14   5.2451453192822211E-010  0.82221253018145291     
          15   5.3272426550665657E-010  0.83508185106151567     
          16   5.3978958369112954E-010  0.84615722226169343     
          17   5.4651173877541287E-010  0.85669466174845499     
          18   5.5138400410956930E-010  0.86433227208002228     
          19   5.5568405749415899E-010  0.87107290090542655     
          20   5.5967042326733643E-010  0.87732180286919803     
          21   5.6320853513212571E-010  0.88286803606452835     
          22   5.6667539410070641E-010  0.88830257545442848     
          23   5.6991920714562028E-010  0.89338747504965887     
          24   5.7310811892667587E-010  0.89838631314550399     
          25   5.7611802738052154E-010  0.90310455123960054     
          26   5.7884652354464721E-010  0.90738165625411549     
          27   5.8149745714982798E-010  0.91153717663378153     
          28   5.8392863528356391E-010  0.91534821522848420     
          29   5.8632470390823323E-010  0.91910421725789482     
          30   5.8861445517174771E-010  0.92269355952633370     
          31   5.9088567913888958E-010  0.92625385898604062     
          32   5.9295951371456980E-010  0.92950473702631031     
          33   5.9491494878247574E-010  0.93257001571149367     
          34   5.9675923006094077E-010  0.93546105320240636     
          35   5.9846973923508146E-010  0.93814239373800334     
          36   5.9989705259859891E-010  0.94037980540258626     
          37   6.0120073914634737E-010  0.94242342354801156     
          38   6.0237193058361198E-010  0.94425934651361587     
          39   6.0354245601313737E-010  0.94609422546637578     
          40   6.0468933831527180E-010  0.94789204219414436     
          41   6.0582965813421875E-010  0.94967957177908391     
          42   6.0696894998824028E-010  0.95146548995844593     
          43   6.0807378058530332E-010  0.95319738775218976     
          44   6.0915746806723645E-010  0.95489614226175623     
          45   6.1020494105591612E-010  0.95653812806747440     
          46   6.1125215049213803E-010  0.95817970073662539     
          47   6.1225869130269022E-010  0.95975752254364499     
          48   6.1321883218855016E-010  0.96126260928393303     
          49   6.1415577461874726E-010  0.96273133085268481     
          50   6.1508094497615019E-010  0.96418159888932564     
          51   6.1585091689168952E-010  0.96538858271590700     
          52   6.1650828807482636E-010  0.96641905716581089     
          53   6.1714712837108742E-010  0.96742048317862261     
          54   6.1777729796048971E-010  0.96840831726329724     
          55   6.1838884890002444E-010  0.96936696533636624     
          56   6.1899877070193165E-010  0.97032305962438414     
          57   6.1959811976412284E-010  0.97126258041721047     
          58   6.2016137260710316E-010  0.97214551790886816     
          59   6.2069044175484749E-010  0.97297487011195893     
          60   6.2121458624155759E-010  0.97379650257086203     
          61   6.2173357674729619E-010  0.97461005581083571     
          62   6.2222666654616658E-010  0.97538300791503285     
          63   6.2266236907656235E-010  0.97606600153697542     
          64   6.2306608664043392E-010  0.97669885652852206     
          65   6.2346975460305511E-010  0.97733163376670429     
          66   6.2386241122960950E-010  0.97794714997981080     
          67   6.2424869251691554E-010  0.97855267241105792     
          68   6.2462826958246486E-010  0.97914768551454023     
          69   6.2500402737169820E-010  0.97973671164025145     
          70   6.2537135065770671E-010  0.98031251610323433     
          71   6.2571796932427558E-010  0.98085586465413144     
          72   6.2604140644859911E-010  0.98136287454643523     
          73   6.2633913291583263E-010  0.98182958121903419     
          74   6.2663539307699034E-010  0.98229398935621581     
          75   6.2692518033511388E-010  0.98274825077360717     
          76   6.2720884639335769E-010  0.98319291679004306     
          77   6.2747066589448362E-010  0.98360333682870282     
          78   6.2772808093018930E-010  0.98400685256550469     
          79   6.2797088274614507E-010  0.98438746107733321     
          80   6.2820687919367530E-010  0.98475740170705106     
          81   6.2844252848545014E-010  0.98512679814629434     
          82   6.2867484744921245E-010  0.98549097406779251     
          83   6.2890701574216205E-010  0.98585491380245016     
          84   6.2913596922781883E-010  0.98621381410601971     
          85   6.2936389709768502E-010  0.98657110668644188     
          86   6.2957139801096384E-010  0.98689637861035739     
          87   6.2977821678675529E-010  0.98722058123694123     
          88   6.2998371674988884E-010  0.98754271653416381     
          89   6.3018520923450611E-010  0.98785856983374865     
          90   6.3037868499862800E-010  0.98816185637370901     
          91   6.3056724329561643E-010  0.98845743444641487     
          92   6.3075458907318041E-010  0.98875111181169850     
          93   6.3092841546854186E-010  0.98902359661744277     
          94   6.3110210907685745E-010  0.98929587327037838     
          95   6.3127449574924138E-010  0.98956610121153621     
          96   6.3144649111132460E-010  0.98983571574693918     
          97   6.3160986887513207E-010  0.99009182160555420     
          98   6.3177037912204572E-010  0.99034343243461886     
          99   6.3191315220454409E-010  0.99056723904102728     
         100   6.3204850572529777E-010  0.99077941497514055     
         101   6.3217889800478095E-010  0.99098381382303491     
         102   6.3230244525401891E-010  0.99117748261619398     
         103   6.3242330085992817E-010  0.99136693207368742     
         104   6.3253718209800364E-010  0.99154544873089812     
         105   6.3264522074335525E-010  0.99171480672299295     
         106   6.3275227249958057E-010  0.99188261769864472     
         107   6.3285752182679306E-010  0.99204760324310448     
         108   6.3296274433534526E-010  0.99221254674747361     
         109   6.3306752153032733E-010  0.99237679219225627     
         110   6.3317115234304611E-010  0.99253924060415633     
         111   6.3326527946393691E-010  0.99268679132680615     
         112   6.3335726740428864E-010  0.99283098873713282     
         113   6.3344563941905155E-010  0.99296951793591093     
         114   6.3353341932570658E-010  0.99310711896458892     
         115   6.3361877598815250E-010  0.99324092139164377     
         116   6.3370377096522531E-010  0.99337415685205099     
         117   6.3378658819143406E-010  0.99350397853850336     
         118   6.3386897550842572E-010  0.99363312631275014     
         119   6.3395013356821741E-010  0.99376034714196260     
         120   6.3402685454895607E-010  0.99388061254520943     
         121   6.3410340471351445E-010  0.99400061018236918     
         122   6.3417897560667449E-010  0.99411907274439726     
         123   6.3425384631376694E-010  0.99423643771670545     
         124   6.3432475985010479E-010  0.99434759955224516     
         125   6.3439449126461415E-010  0.99445690833068101     
         126   6.3446262280186483E-010  0.99456370919170212     
         127   6.3452579935988089E-010  0.99466274278267541     
         128   6.3458785015692600E-010  0.99476001166605732     
         129   6.3464740655499532E-010  0.99485337040783528     
         130   6.3470643705495302E-010  0.99494590476822686     
         131   6.3476372817337816E-010  0.99503571252867939     
         132   6.3482077458306584E-010  0.99512513669138969     
         133   6.3487580913297868E-010  0.99521140712581391     
         134   6.3493030011197471E-010  0.99529682547551657     
         135   6.3498297499429259E-010  0.99537939696902389     
         136   6.3503558422119776E-010  0.99546186554316529     
         137   6.3508693831039462E-010  0.99554236660279938     
         138   6.3513756454856747E-010  0.99562172670599547     
         139   6.3518774482191953E-010  0.99570038772872504     
         140   6.3523724885276173E-010  0.99577798869490486     
         141   6.3528475118642026E-010  0.99585245186335758     
         142   6.3533148024000417E-010  0.99592570286221738     
         143   6.3537723686225324E-010  0.99599742950821446     
         144   6.3542265205616429E-010  0.99606862094185700     
         145   6.3546421897728969E-010  0.99613377994377206     
         146   6.3550526957667050E-010  0.99619812957591336     
         147   6.3554535168823159E-010  0.99626096103692263     
         148   6.3558507849521865E-010  0.99632323553362490     
         149   6.3562414704402097E-010  0.99638447816544140     
         150   6.3566180818278796E-010  0.99644351458542635     
         151   6.3569799526638995E-010  0.99650024032276463     
         152   6.3573414598998309E-010  0.99655690906329342     
         153   6.3576962727851113E-010  0.99661252841840930     
         154   6.3580390747668147E-010  0.99666626498194955     
         155   6.3583796836954130E-010  0.99671965776936300     
         156   6.3587114807472808E-010  0.99677166923461646     
         157   6.3590417877487908E-010  0.99682344712424886     
         158   6.3593705290239683E-010  0.99687497957553206     
         159   6.3596965798834996E-010  0.99692609028569623     
         160   6.3600216086471040E-010  0.99697704077530847     
         161   6.3603368936810383E-010  0.99702646386841642     
         162   6.3606516384709120E-010  0.99707580227455972     
         163   6.3609537175204511E-010  0.99712315523897110     
         164   6.3612520355577460E-010  0.99716991863889848     
         165   6.3615309733663122E-010  0.99721364405495161     
         166   6.3618081409542701E-010  0.99725709197677392     
         167   6.3620805068854288E-010  0.99729978720593571     
         168   6.3623509137547275E-010  0.99734217533870428     
         169   6.3626205109971818E-010  0.99738443655690801     
         170   6.3628891731393779E-010  0.99742655119172796     
         171   6.3631517265797039E-010  0.99746770824560116     
         172   6.3634137892256255E-010  0.99750878836408274     
         173   6.3636704330609976E-010  0.99754901904681725     
         174   6.3639265446493569E-010  0.99758916629617933     
         175   6.3641734759362731E-010  0.99762787447027901     
         176   6.3644109699345414E-010  0.99766510328460778     
         177   6.3646481442060303E-010  0.99770228197956934     
         178   6.3648814925166094E-010  0.99773886092889785     
         179   6.3651009700763974E-010  0.99777326554283452     
         180   6.3653200226755175E-010  0.99780760354126963     
         181   6.3655375249593509E-010  0.99784169851714244     
         182   6.3657516699451253E-010  0.99787526721350106     
         183   6.3659640635982895E-010  0.99790856137645212     
         184   6.3661739060945528E-010  0.99794145562804859     
         185   6.3663836727093704E-010  0.99797433798470758     
         186   6.3665931632495268E-010  0.99800717706476849     
         187   6.3667920181268212E-010  0.99803834893167520     
         188   6.3669878324697955E-010  0.99806904417395781     
         189   6.3671713356370272E-010  0.99809780955494187     
         190   6.3673510812430711E-010  0.99812598591241875     
         191   6.3675294205767243E-010  0.99815394182704609     
         192   6.3677032976273191E-010  0.99818119824817597     
         193   6.3678708970645014E-010  0.99820747061031556     
         194   6.3680381116640720E-010  0.99823368264651802     
         195   6.3682050179763370E-010  0.99825984635656928     
         196   6.3683684406408138E-010  0.99828546398091889     
         197   6.3685293906792419E-010  0.99831069400416395     
         198   6.3686897988749113E-010  0.99833583908983736     
         199   6.3688454677401038E-010  0.99836024125292899     
         200   6.3689995888335298E-010  0.99838440079217272     
         201   6.3691524785900195E-010  0.99840836731089999     
         202   6.3693013185957207E-010  0.99843169900339479     
         203   6.3694473423668825E-010  0.99845458923179553     
         204   6.3695920290257800E-010  0.99847726985867125     
         205   6.3697323540203466E-010  0.99849926676472578     
         206   6.3698720527366314E-010  0.99852116549736092     
         207   6.3700072254484811E-010  0.99854235474773556     
         208   6.3701381826595452E-010  0.99856288318942787     
         209   6.3702690267231457E-010  0.99858339389447859     
         210   6.3703993748796358E-010  0.99860382686268601     
         211   6.3705281697979581E-010  0.99862401635014963     
         212   6.3706547970251822E-010  0.99864386603715505     
         213   6.3707810211333836E-010  0.99866365253248679     
         214   6.3709045297182353E-010  0.99868301335089471     
         215   6.3710230237276884E-010  0.99870158810019016     
         216   6.3711414723947678E-010  0.99872015574175732     
         217   6.3712586473574789E-010  0.99873852372142236     
         218   6.3713744341015114E-010  0.99875667408828106     
         219   6.3714885244220616E-010  0.99877455852911512     
         220   6.3716024633624540E-010  0.99879241924007045     
         221   6.3717099934503714E-010  0.99880927531941155     
         222   6.3718143213359651E-010  0.99882562943155917     
         223   6.3719180981671275E-010  0.99884189716214244     
         224   6.3720209686326378E-010  0.99885802281368874     
         225   6.3721234209303774E-010  0.99887408291456670     
         226   6.3722255186019342E-010  0.99889008742535645     
         227   6.3723270178558445E-010  0.99890599813007275     
         228   6.3724247681471787E-010  0.99892132115917331     
         229   6.3725203335985296E-010  0.99893630169961023     
         230   6.3726155558694485E-010  0.99895122844415896     
         231   6.3727091998423153E-010  0.99896590777965499     
         232   6.3728011384853976E-010  0.99898031979300228     
         233   6.3728852213255341E-010  0.99899350035531753     
         234   6.3729691684786779E-010  0.99900665964776536     
         235   6.3730475492121585E-010  0.99901894636572453     
         236   6.3731233270424676E-010  0.99903082506074581     
         237   6.3731988427582140E-010  0.99904266266751030     
         238   6.3732737708709921E-010  0.99905440816347635     
         239   6.3733467671751207E-010  0.99906585083517718     
         240   6.3734190307282458E-010  0.99907717864312873     
         241   6.3734897738107327E-010  0.99908826810687157     
         242   6.3735592579849037E-010  0.99909916022809520     
         243   6.3736284143498020E-010  0.99911000096296521     
         244   6.3736972794681352E-010  0.99912079604293713     
         245   6.3737635262224516E-010  0.99913118067637763     
         246   6.3738296682468867E-010  0.99914154889269036     
         247   6.3738942683971713E-010  0.99915167540964700     
         248   6.3739575095160386E-010  0.99916158888910089     
         249   6.3740197929033179E-010  0.99917135223755471     
         250   6.3740820495431982E-010  0.99918111139317012     
         251   6.3741442007942559E-010  0.99919085402836427     
         252   6.3742063291895254E-010  0.99920059308075682     
         253   6.3742683689162455E-010  0.99921031823374551     
         254   6.3743302666346308E-010  0.99922002112595310     
         255   6.3743920077079241E-010  0.99922969946296736     
         256   6.3744524752479317E-010  0.99923917816489782     
         257   6.3745126973079860E-010  0.99924861838616064     
         258   6.3745726866424613E-010  0.99925802212609172     
         259   6.3746324803205615E-010  0.99926739519554297     
         260   6.3746906104562260E-010  0.99927650749329922     
         261   6.3747483306795683E-010  0.99928555553448561     
         262   6.3748058341402301E-010  0.99929456959663387     
         263   6.3748628997962381E-010  0.99930351502989767     
         264   6.3749199599578074E-010  0.99931245960187054     
         265   6.3749762331504507E-010  0.99932128081106275     
         266   6.3750297225740031E-010  0.99932966564534276     
         267   6.3750827693266415E-010  0.99933798108791871     
         268   6.3751351152932174E-010  0.99934618667746922     
         269   6.3751869339562764E-010  0.99935430960857430     
         270   6.3752387489861256E-010  0.99936243197014873     
         271   6.3752892615237885E-010  0.99937035015713305     
         272   6.3753389085942900E-010  0.99937813267619935     
         273   6.3753872245869050E-010  0.99938570653967085     
         274   6.3754351457932572E-010  0.99939321851768581     
         275   6.3754826221228249E-010  0.99940066075821143     
         276   6.3755298130201483E-010  0.99940805825527357     
         277   6.3755760044333818E-010  0.99941529907634441     
         278   6.3756220839516243E-010  0.99942252235710727     
         279   6.3756681023553261E-010  0.99942973605774654     
         280   6.3757139327165389E-010  0.99943692028143494     
         281   6.3757592495304130E-010  0.99944402400305310     
         282   6.3758044221469583E-010  0.99945110512075030     
         283   6.3758490240907998E-010  0.99945809678158426     
         284   6.3758934678980517E-010  0.99946506365342225     
         285   6.3759376416483677E-010  0.99947198819198202     
         286   6.3759812175994975E-010  0.99947881902141622     
         287   6.3760242712686830E-010  0.99948556797957078     
         288   6.3760661660820884E-010  0.99949213527912784     
         289   6.3761070594881915E-010  0.99949854560121676     
         290   6.3761469613820886E-010  0.99950480049696189     
         291   6.3761867762739602E-010  0.99951104175454231     
         292   6.3762256250813740E-010  0.99951713157175304     
         293   6.3762644610598068E-010  0.99952321937793298     
         294   6.3763030447141413E-010  0.99952926763057859     
         295   6.3763404943739636E-010  0.99953513812180095     
         296   6.3763771452075258E-010  0.99954088339152414     
         297   6.3764127610014409E-010  0.99954646641167832     
         298   6.3764479100619896E-010  0.99955197626817383     
         299   6.3764828519493284E-010  0.99955745364884674     
         300   6.3765176820880614E-010  0.99956291351215854     
         301   6.3765525120129329E-010  0.99956837334194626     
         302   6.3765870693382344E-010  0.99957379043988015     
         303   6.3766210626517835E-010  0.99957911912510067     
         304   6.3766546301671102E-010  0.99958438106352732     
         305   6.3766876274411553E-010  0.99958955361271906     
         306   6.3767202061302524E-010  0.99959466054584711     
