# Cummulative flux accounted for as a function of pathway in the R-->L direction
#  Index          Path Flux       Relative Flux
	   0 0 0 
           1   2.9028586443736322E-012  0.16043112242812146     
           2   4.1943903322643794E-012  0.23180968532900567     
           3   5.4848750365168760E-012  0.30313038500579736     
           4   6.7619647668812864E-012  0.37371079004236385     
           5   7.9751448868812886E-012  0.44075912831964170     
           6   9.1536310053178208E-012  0.50589004715138830     
           7   1.0103032664596998E-011  0.55836024721727706     
           8   1.1005749015111853E-011  0.60825030908026700     
           9   1.1866300334713470E-011  0.65581005312025920     
          10   1.2352023620528866E-011  0.68265432681022165     
          11   1.2715123422866998E-011  0.70272161770481667     
          12   1.3050858610143017E-011  0.72127655941295132     
          13   1.3381016672135215E-011  0.73952327237872528     
          14   1.3693074534788502E-011  0.75676964889968401     
          15   1.3934416456689544E-011  0.77010779593436296     
          16   1.4170557428492627E-011  0.78315850414954391     
          17   1.4392660666705539E-011  0.79543339458228368     
          18   1.4588563916090724E-011  0.80626030075875132     
          19   1.4751462971191857E-011  0.81526317738969190     
          20   1.4912237751771347E-011  0.82414865259410652     
          21   1.5064629900916417E-011  0.83257084827489303     
          22   1.5203471029980758E-011  0.84024412517321956     
          23   1.5341517099586997E-011  0.84787346183990331     
          24   1.5467264466560823E-011  0.85482309104940446     
          25   1.5578395753569232E-011  0.86096493923970374     
          26   1.5687878340009918E-011  0.86701566935811880     
          27   1.5790805305733771E-011  0.87270409262020343     
          28   1.5892933056431360E-011  0.87834834598652911     
          29   1.5984112966448038E-011  0.88338754944041520     
          30   1.6064622335331391E-011  0.88783702838454870     
          31   1.6143670968213202E-011  0.89220577741895912     
          32   1.6221862471199195E-011  0.89652715579978326     
          33   1.6288202991429364E-011  0.90019357067796557     
          34   1.6351439734781508E-011  0.90368845036642265     
          35   1.6408446017949460E-011  0.90683899371506826     
          36   1.6464440792106049E-011  0.90993363440157304     
          37   1.6518070333594373E-011  0.91289755672447137     
          38   1.6570811627238851E-011  0.91581238861065184     
          39   1.6623356770834431E-011  0.91871637995088629     
          40   1.6673935575016088E-011  0.92151169840074010     
          41   1.6724279675031450E-011  0.92429404554973149     
          42   1.6773931087772201E-011  0.92703811022941540     
          43   1.6818335450042787E-011  0.92949218827885216     
          44   1.6862360476780888E-011  0.93192530174381916     
          45   1.6905344101191386E-011  0.93430086044474692     
          46   1.6943865751175096E-011  0.93642982099769989     
          47   1.6977977039246819E-011  0.93831503585079734     
          48   1.7011823684262570E-011  0.94018562478244494     
          49   1.7044993731212669E-011  0.94201882044063245     
          50   1.7078143929026956E-011  0.94385091910460583     
          51   1.7111158895272430E-011  0.94567554397979703     
          52   1.7139322828396062E-011  0.94723206875642452     
          53   1.7167155500074669E-011  0.94877028583985945     
          54   1.7194637441614060E-011  0.95028911926160187     
          55   1.7221863500997246E-011  0.95179381094702209     
          56   1.7246207528184073E-011  0.95313922251694916     
          57   1.7269304751888466E-011  0.95441572749973624     
          58   1.7290446795551499E-011  0.95558417633270254     
          59   1.7311175070459699E-011  0.95672975757413392     
          60   1.7330873973424061E-011  0.95781844892991197     
          61   1.7349963336795096E-011  0.95887345310587802     
          62   1.7368432655173568E-011  0.95989418950435323     
          63   1.7386419417847096E-011  0.96088825669055788     
          64   1.7404100637734556E-011  0.96186543756636167     
          65   1.7421335754534181E-011  0.96281796384203922     
          66   1.7437945689020741E-011  0.96373593841799776     
          67   1.7454266098917892E-011  0.96463791195479465     
          68   1.7469663622425136E-011  0.96548888070026506     
          69   1.7484544603631291E-011  0.96631130190991033     
          70   1.7498952097063054E-011  0.96710755506095980     
          71   1.7513356622847428E-011  0.96790364420023323     
          72   1.7527405179090152E-011  0.96868006011386487     
          73   1.7541317069597684E-011  0.96944892297721730     
          74   1.7555089805833321E-011  0.97021009525733237     
          75   1.7568803832214861E-011  0.97096802284352868     
          76   1.7581985499164458E-011  0.97169652873488399     
          77   1.7595041236148830E-011  0.97241807490544541     
          78   1.7606256949743694E-011  0.97303792924259824     
          79   1.7617125711678231E-011  0.97363860874173314     
          80   1.7627894284936321E-011  0.97423375115353927     
          81   1.7638076940387247E-011  0.97479651188129879     
          82   1.7647981021356478E-011  0.97534387674510037     
          83   1.7657853203558933E-011  0.97588947867257436     
          84   1.7666590188522719E-011  0.97637234211034274     
          85   1.7674793250019395E-011  0.97682569741436664     
          86   1.7682832368303981E-011  0.97726999213475496     
          87   1.7690440147931053E-011  0.97769044823485562     
          88   1.7698034902859167E-011  0.97811018450415188     
          89   1.7705557865126725E-011  0.97852595303732115     
          90   1.7712913321772290E-011  0.97893246410457768     
          91   1.7720042514148556E-011  0.97932647031536824     
          92   1.7727154979420139E-011  0.97971955207598482     
          93   1.7734149819490011E-011  0.98010613309183614     
          94   1.7741033129968204E-011  0.98048655024655296     
          95   1.7747230852318131E-011  0.98082907727763102     
          96   1.7753383014750680E-011  0.98116908636705980     
          97   1.7759267017757848E-011  0.98149427519726340     
          98   1.7765047095006560E-011  0.98181372040432835     
          99   1.7770780585286107E-011  0.98213059090808541     
         100   1.7776475803322190E-011  0.98244534623513957     
         101   1.7782143591676568E-011  0.98275858561699525     
         102   1.7787751413556658E-011  0.98306851085580893     
         103   1.7793175252294046E-011  0.98336826797219312     
         104   1.7798487525121988E-011  0.98366185922028326     
         105   1.7803769480258120E-011  0.98395377491268088     
         106   1.7809014097544948E-011  0.98424362706916202     
         107   1.7814054164047996E-011  0.98452217439965761     
         108   1.7819065470539694E-011  0.98479913226216076     
         109   1.7823868712406711E-011  0.98506459110064504     
         110   1.7828636826570013E-011  0.98532810855044117     
         111   1.7833394646150823E-011  0.98559105705368266     
         112   1.7838031201441899E-011  0.98584730369214335     
         113   1.7842555615492697E-011  0.98609735266573217     
         114   1.7846996745872619E-011  0.98634279883414333     
         115   1.7851193917788945E-011  0.98657476224816110     
         116   1.7855368622402554E-011  0.98680548397078627     
         117   1.7859494915574130E-011  0.98703353015769457     
         118   1.7863449724119667E-011  0.98725209897267241     
         119   1.7867332169647835E-011  0.98746666852984233     
         120   1.7871084510955298E-011  0.98767404766931788     
         121   1.7874767844965859E-011  0.98787761301024057     
         122   1.7878408194346882E-011  0.98807880273691218     
         123   1.7882033275676862E-011  0.98827914865034105     
         124   1.7885512514378780E-011  0.98847143433783946     
         125   1.7888938635120671E-011  0.98866078437638205     
         126   1.7892355403847797E-011  0.98884961756088197     
         127   1.7895765581589120E-011  0.98903808648401759     
         128   1.7899152090902515E-011  0.98922524733365602     
         129   1.7902476349540932E-011  0.98940896780025056     
         130   1.7905728741501240E-011  0.98958871644001978     
         131   1.7908980358164716E-011  0.98976842223177042     
         132   1.7912210599873731E-011  0.98994694670250072     
         133   1.7915439011015744E-011  0.99012537000401979     
         134   1.7918590300435945E-011  0.99029953105032453     
         135   1.7921639919617659E-011  0.99046807312840646     
         136   1.7924425871089892E-011  0.99062204318912117     
         137   1.7927172989890059E-011  0.99077386710015058     
         138   1.7929876341142002E-011  0.99092327212767650     
         139   1.7932505469146307E-011  0.99106857508879576     
         140   1.7935038686878641E-011  0.99120857741544732     
         141   1.7937522945797132E-011  0.99134587395500440     
         142   1.7939976169428969E-011  0.99148145527984277     
         143   1.7942407911535989E-011  0.99161584939387959     
         144   1.7944823941904279E-011  0.99174937517356465     
         145   1.7947239696673971E-011  0.99188288572185257     
         146   1.7949625403546198E-011  0.99201473562506359     
         147   1.7951877424182656E-011  0.99213919714479293     
         148   1.7954109681398053E-011  0.99226256640747079     
         149   1.7956300460561258E-011  0.99238364331930262     
         150   1.7958464525190290E-011  0.99250324380970734     
         151   1.7960576660778761E-011  0.99261997435869065     
         152   1.7962551437247692E-011  0.99272911353640059     
         153   1.7964492203375705E-011  0.99283637307826333     
         154   1.7966382184649637E-011  0.99294082591399913     
         155   1.7968260559437707E-011  0.99304463729874393     
         156   1.7970130527324145E-011  0.99314798406263383     
         157   1.7971993660711704E-011  0.99325095310701994     
         158   1.7973774771222514E-011  0.99334938902603087     
         159   1.7975553719393910E-011  0.99344770543989824     
         160   1.7977316132601573E-011  0.99354510802256812     
         161   1.7979066502434389E-011  0.99364184500887887     
         162   1.7980808362139255E-011  0.99373811166936743     
         163   1.7982533909346703E-011  0.99383347679361489     
         164   1.7984203819046686E-011  0.99392576702209057     
         165   1.7985867209708499E-011  0.99401769696550279     
         166   1.7987457581615620E-011  0.99410559141073607     
         167   1.7988985631740390E-011  0.99419004154306279     
         168   1.7990510647839698E-011  0.99427432399512339     
         169   1.7992014527514974E-011  0.99435743830892886     
         170   1.7993502420005062E-011  0.99443966906539361     
         171   1.7994975316860878E-011  0.99452107106416376     
         172   1.7996417209819386E-011  0.99460075958299776     
         173   1.7997857160057089E-011  0.99468034073426159     
         174   1.7999280664663440E-011  0.99475901299142477     
         175   1.8000652623240781E-011  0.99483483647491211     
         176   1.8002015553496387E-011  0.99491016099376939     
         177   1.8003374598243620E-011  0.99498527077379650     
         178   1.8004706744817740E-011  0.99505889398329683     
         179   1.8006021484282407E-011  0.99513155516107277     
         180   1.8007330118803981E-011  0.99520387893941153     
         181   1.8008637446807071E-011  0.99527613051091812     
         182   1.8009826072337611E-011  0.99534182180056485     
         183   1.8010989748498711E-011  0.99540613422343460     
         184   1.8012148188998379E-011  0.99547015728910748     
         185   1.8013304345342599E-011  0.99553405411727902     
         186   1.8014444070320845E-011  0.99559704283974870     
         187   1.8015577345153869E-011  0.99565967508463404     
         188   1.8016701517565854E-011  0.99572180426967272     
         189   1.8017810443716472E-011  0.99578309084570982     
         190   1.8018880683873335E-011  0.99584223937847283     
         191   1.8019933980523596E-011  0.99590045150126394     
         192   1.8020934172382290E-011  0.99595572870287508     
         193   1.8021931491774374E-011  0.99601084715302812     
         194   1.8022926315156051E-011  0.99606582765717688     
         195   1.8023893944941057E-011  0.99611930526374382     
         196   1.8024858367126549E-011  0.99617260559719722     
         197   1.8025802800034346E-011  0.99622480119127121     
         198   1.8026737025492057E-011  0.99627643265430232     
         199   1.8027663156001345E-011  0.99632761673707115     
         200   1.8028508797665099E-011  0.99637435247515160     
         201   1.8029323024849819E-011  0.99641935204184062     
         202   1.8030115277028652E-011  0.99646313712470802     
         203   1.8030891139664660E-011  0.99650601641329684     
         204   1.8031650989556067E-011  0.99654801073196331     
         205   1.8032396074799382E-011  0.99658918905875549     
         206   1.8033133348336245E-011  0.99662993565910574     
         207   1.8033866613885025E-011  0.99667046075158883     
         208   1.8034594752838470E-011  0.99671070251458727     
         209   1.8035287175744874E-011  0.99674897037316335     
         210   1.8035954106756971E-011  0.99678582938145865     
         211   1.8036620028576625E-011  0.99682263261512061     
         212   1.8037285025755170E-011  0.99685938474701374     
         213   1.8037934298212404E-011  0.99689526782705207     
         214   1.8038580720154583E-011  0.99693099336881996     
         215   1.8039220917618633E-011  0.99696637490485596     
         216   1.8039845067671078E-011  0.99700086955504197     
         217   1.8040454707863409E-011  0.99703456229461873     
         218   1.8041061345919399E-011  0.99706808911633249     
         219   1.8041665673148129E-011  0.99710148822648448     
         220   1.8042260934590421E-011  0.99713438630145967     
         221   1.8042854667801119E-011  0.99716719991627334     
         222   1.8043445877351797E-011  0.99719987405698263     
         223   1.8044031202324375E-011  0.99723222297707836     
         224   1.8044612395545254E-011  0.99726434354931293     
         225   1.8045192040223407E-011  0.99729637853885877     
         226   1.8045768233664336E-011  0.99732822279026356     
         227   1.8046341525677104E-011  0.99735990668960384     
         228   1.8046913563014942E-011  0.99739152124732888     
         229   1.8047482994557778E-011  0.99742299179162841     
         230   1.8048051068104411E-011  0.99745438728409741     
         231   1.8048605712368180E-011  0.99748504058578591     
         232   1.8049149960442396E-011  0.99751511932544312     
         233   1.8049692193567806E-011  0.99754508670573416     
         234   1.8050225088286563E-011  0.99757453798405660     
         235   1.8050744405801119E-011  0.99760323889648939     
         236   1.8051242011602085E-011  0.99763073987637019     
         237   1.8051738438447976E-011  0.99765817569941451     
         238   1.8052214046359506E-011  0.99768446093077778     
         239   1.8052681467948088E-011  0.99771029373191977     
         240   1.8053146116296168E-011  0.99773597326549313     
         241   1.8053609715999439E-011  0.99776159484403515     
         242   1.8054067953216081E-011  0.99778692005618308     
         243   1.8054518128326877E-011  0.99781179970316625     
         244   1.8054965863973072E-011  0.99783654452923942     
         245   1.8055406769234266E-011  0.99786091186316905     
         246   1.8055842528698451E-011  0.99788499480640269     
         247   1.8056277803604572E-011  0.99790905096976057     
         248   1.8056702789287381E-011  0.99793253848274754     
         249   1.8057127054889511E-011  0.99795598619932491     
         250   1.8057549030887005E-011  0.99797930737724272     
         251   1.8057970241846141E-011  0.99800258627409288     
         252   1.8058386057546298E-011  0.99802556699333278     
         253   1.8058801118172298E-011  0.99804850598219264     
         254   1.8059210639915620E-011  0.99807113885584875     
         255   1.8059619675827214E-011  0.99809374487923808     
         256   1.8060027581374406E-011  0.99811628843123212     
         257   1.8060428072077531E-011  0.99813842219001803     
         258   1.8060809403692026E-011  0.99815949709115015     
         259   1.8061185376269845E-011  0.99818027581655544     
         260   1.8061554644481685E-011  0.99820068401445972     
         261   1.8061920325845708E-011  0.99822089397948677     
         262   1.8062284661986189E-011  0.99824102959858474     
         263   1.8062646706153180E-011  0.99826103854810477     
         264   1.8062986966459896E-011  0.99827984357777100     
         265   1.8063325146128422E-011  0.99829853361764220     
         266   1.8063660476407830E-011  0.99831706618146987     
         267   1.8063994861696370E-011  0.99833554651886691     
         268   1.8064328658122781E-011  0.99835399431185723     
         269   1.8064660852665416E-011  0.99837235357418053     
         270   1.8064978713730324E-011  0.99838992067394894     
         271   1.8065289819037575E-011  0.99840711440597318     
         272   1.8065596461852495E-011  0.99842406151122665     
         273   1.8065901831970858E-011  0.99844093827887093     
         274   1.8066202040951703E-011  0.99845752980800140     
         275   1.8066500855724222E-011  0.99847404428398057     
         276   1.8066795184798324E-011  0.99849031085066742     
         277   1.8067080221193362E-011  0.99850606384259410     
         278   1.8067364843581335E-011  0.99852179395375851     
         279   1.8067643703552849E-011  0.99853720559576764     
         280   1.8067919416348969E-011  0.99855244330409876     
         281   1.8068193551638329E-011  0.99856759382899751     
         282   1.8068464235824191E-011  0.99858255362314574     
         283   1.8068734671611299E-011  0.99859749968913991     
         284   1.8069002938843686E-011  0.99861232590649152     
         285   1.8069269556182589E-011  0.99862706093984288     
         286   1.8069536117746545E-011  0.99864179289070265     
         287   1.8069798492116182E-011  0.99865629342957618     
         288   1.8070050327349230E-011  0.99867021150622215     
         289   1.8070300540866866E-011  0.99868403995617394     
         290   1.8070550726649207E-011  0.99869786687329043     
         291   1.8070799275427083E-011  0.99871160331873876     
         292   1.8071045013546580E-011  0.99872518442865976     
         293   1.8071286266838657E-011  0.99873851767742561     
         294   1.8071525187539135E-011  0.99875172201178863     
         295   1.8071755498491789E-011  0.99876445051467777     
         296   1.8071984702544722E-011  0.99877711784298484     
         297   1.8072213759690294E-011  0.99878977705222172     
         298   1.8072442287097071E-011  0.99880240698459755     
         299   1.8072668034718513E-011  0.99881488328769397     
         300   1.8072890580966060E-011  0.99882718266174564     
         301   1.8073112887785217E-011  0.99883946880340457     
         302   1.8073332931756304E-011  0.99885162988514842     
         303   1.8073545740392532E-011  0.99886339109454747     
         304   1.8073752600182616E-011  0.99887482353145685     
         305   1.8073958093566205E-011  0.99888618045172728     
