# Cummulative flux accounted for as a function of pathway in the R-->L direction
#  Index          Path Flux       Relative Flux

           0 0 0 
           1   4.0828015603104688E-006  0.22533887557300628     
           2   6.1396150662753178E-006  0.33885897588918412     
           3   8.0962840934076140E-006  0.44685188025385064     
           4   9.5574869582370683E-006  0.52749890795795640     
           5   1.0434928176704184E-005  0.57592683535782574     
           6   1.1221622178291999E-005  0.61934622254066651     
           7   1.1914727708168316E-005  0.65760025434913028     
           8   1.2419224611274832E-005  0.68544455762882273     
           9   1.2879955267280243E-005  0.71087330463811360     
          10   1.3316647339038291E-005  0.73497530885458162     
          11   1.3731223729195541E-005  0.75785669954113921     
          12   1.4089906080175794E-005  0.77765317420782032     
          13   1.4425142285269350E-005  0.79615560406909414     
          14   1.4741719346526552E-005  0.81362819438780654     
          15   1.5032938526366211E-005  0.82970122697608928     
          16   1.5301349356240922E-005  0.84451541613079939     
          17   1.5537847564244808E-005  0.85756827688815007     
          18   1.5739815193450727E-005  0.86871531839754612     
          19   1.5923621975835937E-005  0.87886002248211736     
          20   1.6080437382936735E-005  0.88751501268593469     
          21   1.6230811584242778E-005  0.89581449845249639     
          22   1.6374316782399702E-005  0.90373486869677144     
          23   1.6512920040938482E-005  0.91138469001885114     
          24   1.6643579046278137E-005  0.91859605038300418     
          25   1.6763930969092397E-005  0.92523853999691341     
          26   1.6862185818171006E-005  0.93066144309027010     
          27   1.6952258611336338E-005  0.93563276036635457     
          28   1.7037907740989376E-005  0.94035992583955341     
          29   1.7122090566623648E-005  0.94500616274104587     
          30   1.7197099655512536E-005  0.94914608076015528     
          31   1.7268565947875025E-005  0.95309046397948338     
          32   1.7338695784321799E-005  0.95696108523197287     
          33   1.7400096598994201E-005  0.96034993240790401     
          34   1.7450719091269793E-005  0.96314390005966954     
          35   1.7497270988689173E-005  0.96571320255094106     
          36   1.7543196548245894E-005  0.96824793606607806     
          37   1.7587697894581185E-005  0.97070406409398957     
          38   1.7627760572103784E-005  0.97291521214319820     
          39   1.7666945613302610E-005  0.97507792149671224     
          40   1.7704995900060781E-005  0.97717800123525944     
          41   1.7740098438556334E-005  0.97911538820778343     
          42   1.7770084130408370E-005  0.98077036506262294     
          43   1.7798827601531147E-005  0.98235678099961976     
          44   1.7820911406316481E-005  0.98357563517736779     
          45   1.7840442947441637E-005  0.98465362426166114     
          46   1.7857306927421628E-005  0.98558438472852250     
          47   1.7871161129247510E-005  0.98634902886203957     
          48   1.7884517521867147E-005  0.98708619780110307     
          49   1.7897530593029001E-005  0.98780441806727259     
          50   1.7907340062742983E-005  0.98834582446252928     
          51   1.7917125012661242E-005  0.98888587755586432     
          52   1.7926206526779291E-005  0.98938710646685402     
          53   1.7935083717352688E-005  0.98987705830813444     
          54   1.7943802204323298E-005  0.99035825094550223     
          55   1.7952172226463610E-005  0.99082021103583684     
          56   1.7960216864985426E-005  0.99126421248242180     
          57   1.7967858833104811E-005  0.99168598965619559     
          58   1.7975370999538904E-005  0.99210060278700052     
          59   1.7982479591669558E-005  0.99249294175669245     
          60   1.7989566937212132E-005  0.99288410808005390     
          61   1.7996535090828372E-005  0.99326869593658051     
          62   1.8003093396522941E-005  0.99363066337708628     
          63   1.8009330198140020E-005  0.99397488629431696     
          64   1.8014873645362086E-005  0.99428084144432038     
          65   1.8020224745401482E-005  0.99457618052660102     
          66   1.8025439048393003E-005  0.99486396947633315     
          67   1.8030362427343035E-005  0.99513570168281729     
          68   1.8034806583300527E-005  0.99538098450921453     
          69   1.8039117892560705E-005  0.99561893523167444     
          70   1.8042982019149986E-005  0.99583220495047853     
          71   1.8046585072505014E-005  0.99603106545830822     
          72   1.8050177367205251E-005  0.99622933217211274     
          73   1.8053613591869024E-005  0.99641898503437232     
          74   1.8056765387696044E-005  0.99659293963814255     
          75   1.8059833465436832E-005  0.99676227365500991     
          76   1.8062836057876265E-005  0.99692799339282012     
          77   1.8065748506282533E-005  0.99708873788146068     
          78   1.8068332330538479E-005  0.99723134487421117     
          79   1.8070504150541431E-005  0.99735121243823133     
          80   1.8072632077038746E-005  0.99746865742230018     
          81   1.8074599383738653E-005  0.99757723744342441     
          82   1.8076285096072771E-005  0.99767027564679989     
          83   1.8077916221920364E-005  0.99776030110088698     
          84   1.8079457764140397E-005  0.99784538223583297     
          85   1.8080986540431615E-005  0.99792975879084722     
          86   1.8082483430345848E-005  0.99801237546597754     
          87   1.8083977551678168E-005  0.99809483933693022     
          88   1.8085468340684513E-005  0.99817711928941966     
          89   1.8086892108688079E-005  0.99825570020408361     
          90   1.8088306581421756E-005  0.99833376809218122     
          91   1.8089676421007415E-005  0.99840937257782381     
          92   1.8091038857090377E-005  0.99848456844772826     
          93   1.8092386358348786E-005  0.99855894003153356     
          94   1.8093730210783574E-005  0.99863311022866852     
          95   1.8095034388896860E-005  0.99870509071198466     
          96   1.8096324558221249E-005  0.99877629801916379     
          97   1.8097426176778604E-005  0.99883709879122129     
          98   1.8098478486910103E-005  0.99889517812186801     
          99   1.8099487232920677E-005  0.99895085305203635     
         100   1.8100427672341652E-005  0.99900275798999061     
         101   1.8101317656713042E-005  0.99905187820182650     
         102   1.8102191473277267E-005  0.99910010607651767     
         103   1.8102992910699475E-005  0.99914433918579193     
         104   1.8103693315343622E-005  0.99918299607190963     
         105   1.8104386570195743E-005  0.99922125834514408     
         106   1.8104992360877539E-005  0.99925469327678407     
         107   1.8105580239484322E-005  0.99928713960126714     
         108   1.8106156064190168E-005  0.99931892064421668     
         109   1.8106655696469162E-005  0.99934649645809970     
         110   1.8107139424694512E-005  0.99937319449197981     
         111   1.8107547019749465E-005  0.99939569056728883     
         112   1.8107951264788255E-005  0.99941800174777395     
         113   1.8108354086975778E-005  0.99944023439794105     
         114   1.8108721842242497E-005  0.99946053162695514     
         115   1.8109085895523366E-005  0.99948062453515740     
         116   1.8109437877352506E-005  0.99950005119315899     
         117   1.8109787456532569E-005  0.99951934524362795     
         118   1.8110121792133783E-005  0.99953779796716313     
         119   1.8110437531456149E-005  0.99955522432081401     
         120   1.8110729707547711E-005  0.99957135016748300     
         121   1.8111006711559358E-005  0.99958663863340325     
         122   1.8111268634321253E-005  0.99960109473169279     
         123   1.8111512642389862E-005  0.99961456207831711     
         124   1.8111751900615222E-005  0.99962776727055536     
         125   1.8111987128242482E-005  0.99964075000514274     
         126   1.8112219161392991E-005  0.99965355642947140     
         127   1.8112446601847177E-005  0.99966610937270151     
         128   1.8112662783590321E-005  0.99967804092269230     
         129   1.8112868810097750E-005  0.99968941198269523     
         130   1.8113063882846266E-005  0.99970017848044346     
         131   1.8113253965131244E-005  0.99971066954343790     
         132   1.8113440291233940E-005  0.99972095329439947     
         133   1.8113622947694860E-005  0.99973103450969036     
         134   1.8113801308984865E-005  0.99974087866496997     
         135   1.8113963592852392E-005  0.99974983547163621     
         136   1.8114120723668468E-005  0.99975850786996112     
         137   1.8114277456442180E-005  0.99976715829944485     
         138   1.8114431028609800E-005  0.99977563428806682     
         139   1.8114574390272487E-005  0.99978354673627001     
         140   1.8114717647275308E-005  0.99979145340806319     
         141   1.8114860859961959E-005  0.99979935763394845     
         142   1.8114998063359674E-005  0.99980693019384614     
         143   1.8115134884259207E-005  0.99981448164282061     
         144   1.8115271026453289E-005  0.99982199563253571     
         145   1.8115406355149140E-005  0.99982946472347856     
         146   1.8115541594985648E-005  0.99983692891007714     
         147   1.8115652975450439E-005  0.99984307624502011     
         148   1.8115756001466539E-005  0.99984876247940602     
         149   1.8115858398276961E-005  0.99985441398653452     
         150   1.8115960284305621E-005  0.99986003730248463     
         151   1.8116056594859042E-005  0.99986535289558731     
         152   1.8116146356953809E-005  0.99987030706472957     
         153   1.8116236104279801E-005  0.99987526041875030     
         154   1.8116324175516808E-005  0.99988012126570158     
         155   1.8116409490230455E-005  0.99988482997401362     
         156   1.8116485896164921E-005  0.99988904698703895     
         157   1.8116560754841528E-005  0.99989317860347049     
         158   1.8116632496441571E-005  0.99989713818153148     
         159   1.8116703642855903E-005  0.99990106490997266     
         160   1.8116774686367532E-005  0.99990498595898547     
         161   1.8116840856607799E-005  0.99990863804134067     
         162   1.8116906472349247E-005  0.99991225951967588     
         163   1.8116964858842393E-005  0.99991548199975966     
         164   1.8117019293192938E-005  0.99991848635232572     
         165   1.8117072749272016E-005  0.99992143671191924     
         166   1.8117125442519283E-005  0.99992434496913285     
         167   1.8117176844413231E-005  0.99992718195369190     
         168   1.8117226284510494E-005  0.99992991066233983     
         169   1.8117273448066798E-005  0.99993251372364189     
         170   1.8117320428768940E-005  0.99993510669281715     
         171   1.8117367185516011E-005  0.99993768730141508     
         172   1.8117410033750127E-005  0.99994005219051230     
         173   1.8117449023205546E-005  0.99994220410505275     
         174   1.8117487222496187E-005  0.99994431240864612     
         175   1.8117525403623460E-005  0.99994641970976295     
         176   1.8117561979468372E-005  0.99994843841178505     
         177   1.8117597549349455E-005  0.99995040159243176     
         178   1.8117628283692697E-005  0.99995209788901762     
         179   1.8117658602496866E-005  0.99995377125108020     
         180   1.8117687088254499E-005  0.99995534344323800     
         181   1.8117715513325919E-005  0.99995691228598904     
         182   1.8117742177988774E-005  0.99995838396788606     
         183   1.8117768654273385E-005  0.99995984525276982     
         184   1.8117792445921108E-005  0.99996115836658805     
         185   1.8117816109160946E-005  0.99996246439329028     
         186   1.8117837334890291E-005  0.99996363588838078     
         187   1.8117857896625314E-005  0.99996477073615175     
         188   1.8117876270177163E-005  0.99996578481323906     
         189   1.8117894461219575E-005  0.99996678881722556     
         190   1.8117912630771203E-005  0.99996779163508798     
         191   1.8117929901214505E-005  0.99996874482916731     
         192   1.8117946360489820E-005  0.99996965325308584     
         193   1.8117962784713902E-005  0.99997055974244908     
         194   1.8117978915989284E-005  0.99997145006332377     
         195   1.8117994628936731E-005  0.99997231729575164     
         196   1.8118009617149672E-005  0.99997314452847430     
         197   1.8118024404479897E-005  0.99997396067403421     
         198   1.8118038173532496E-005  0.99997472061859305     
         199   1.8118051021601225E-005  0.99997542973200892     
         200   1.8118063768752328E-005  0.99997613327555712     
         201   1.8118075946388604E-005  0.99997680538631861     
         202   1.8118087790568924E-005  0.99997745909290603     
         203   1.8118099467400948E-005  0.99997810356316985     
         204   1.8118110454277118E-005  0.99997870995323945     
         205   1.8118121191462713E-005  0.99997930256233225     
         206   1.8118131429095304E-005  0.99997986759998647     
         207   1.8118140427673916E-005  0.99998036425150294     
         208   1.8118149380007186E-005  0.99998085835063633     
         209   1.8118157815273665E-005  0.99998132391170647     
         210   1.8118166142612792E-005  0.99998178351602662     
         211   1.8118174380422633E-005  0.99998223817902687     
         212   1.8118182592810170E-005  0.99998269143891372     
         213   1.8118190369088716E-005  0.99998312062897787     
         214   1.8118197311561351E-005  0.99998350379944412     
         215   1.8118204206636340E-005  0.99998388435392904     
         216   1.8118210975132934E-005  0.99998425792227164     
         217   1.8118217728356539E-005  0.99998463064766396     
         218   1.8118224477489604E-005  0.99998500314729044     
         219   1.8118231204745804E-005  0.99998537443948410     
         220   1.8118237930170214E-005  0.99998574563057729     
         221   1.8118244480470040E-005  0.99998610715615610     
         222   1.8118250910920230E-005  0.99998646206696773     
         223   1.8118257273665718E-005  0.99998681324100658     
         224   1.8118263293298203E-005  0.99998714547787770     
         225   1.8118269301991838E-005  0.99998747711100933     
         226   1.8118274955245236E-005  0.99998778912660580     
         227   1.8118280493965879E-005  0.99998809482088535     
         228   1.8118285849695559E-005  0.99998839041548782     
         229   1.8118290703960732E-005  0.99998865833315165     
         230   1.8118295539787834E-005  0.99998892523317739     
         231   1.8118300342600252E-005  0.99998919031104949     
         232   1.8118305079221439E-005  0.99998945173568066     
         233   1.8118309801906637E-005  0.99998971239115375     
         234   1.8118314430465766E-005  0.99998996785160033     
         235   1.8118319021966371E-005  0.99999022126670467     
         236   1.8118323464503217E-005  0.99999046646016876     
         237   1.8118327852220339E-005  0.99999070862801054     
         238   1.8118332233242218E-005  0.99999095042632713     
         239   1.8118336532443444E-005  0.99999118770878037     
         240   1.8118340749646484E-005  0.99999142046557177     
         241   1.8118344839869243E-005  0.99999164621403969     
         242   1.8118348707908420E-005  0.99999185969970283     
         243   1.8118352492973993E-005  0.99999206860586887     
         244   1.8118356156400069E-005  0.99999227079848108     
         245   1.8118359730937318E-005  0.99999246808512166     
         246   1.8118363272170881E-005  0.99999266353365812     
         247   1.8118366739560786E-005  0.99999285490659917     
         248   1.8118370067813086E-005  0.99999303860022715     
         249   1.8118373384563124E-005  0.99999322165901972     
         250   1.8118376533108886E-005  0.99999339543424526     
         251   1.8118379667358443E-005  0.99999356842043141     
         252   1.8118382766301109E-005  0.99999373945795200     
         253   1.8118385722765633E-005  0.99999390263178778     
         254   1.8118388642009469E-005  0.99999406375133126     
         255   1.8118391468875963E-005  0.99999421977236436     
         256   1.8118394229004057E-005  0.99999437210995701     
         257   1.8118396867542432E-005  0.99999451773674342     
         258   1.8118399474835587E-005  0.99999466163903672     
         259   1.8118402039160649E-005  0.99999480316982570     
         260   1.8118404482745825E-005  0.99999493803671258     
         261   1.8118406907216616E-005  0.99999507184863401     
         262   1.8118409231993536E-005  0.99999520015822962     
         263   1.8118411416465849E-005  0.99999532072410269     
         264   1.8118413563744409E-005  0.99999543923717005     
         265   1.8118415710977582E-005  0.99999555774773241     
         266   1.8118417842241261E-005  0.99999567537690293     
         267   1.8118419764038238E-005  0.99999578144514145     
         268   1.8118421683877447E-005  0.99999588740532652     
         269   1.8118423563045757E-005  0.99999599112079429     
         270   1.8118425254280220E-005  0.99999608446377619     
         271   1.8118426907777990E-005  0.99999617572398636     
         272   1.8118428559220990E-005  0.99999626687078913     
         273   1.8118430137938910E-005  0.99999635400373343     
         274   1.8118431686582705E-005  0.99999643947682004     
         275   1.8118433162977944E-005  0.99999652096234859     
         276   1.8118434548496872E-005  0.99999659743221192     
         277   1.8118435873767606E-005  0.99999667057684383     
         278   1.8118437182640877E-005  0.99999674281646322     
         279   1.8118438481711127E-005  0.99999681451503231     
         280   1.8118439716762711E-005  0.99999688268026909     
         281   1.8118440937777686E-005  0.99999695007079437     
         282   1.8118442133169050E-005  0.99999701604709568     
         283   1.8118443325616189E-005  0.99999708186089853     
         284   1.8118444516402540E-005  0.99999714758303893     
         285   1.8118445701685457E-005  0.99999721300143263     
         286   1.8118446855861201E-005  0.99999727670295246     
         287   1.8118447997280405E-005  0.99999733970041049     
         288   1.8118449128230834E-005  0.99999740212007360     
         289   1.8118450248929338E-005  0.99999746397391032     
         290   1.8118451364652588E-005  0.99999752555315158     
         291   1.8118452439611375E-005  0.99999758488251178     
         292   1.8118453484240331E-005  0.99999764253790124     
         293   1.8118454505155437E-005  0.99999769888447088     
         294   1.8118455519050236E-005  0.99999775484357412     
         295   1.8118456487832846E-005  0.99999780831283558     
         296   1.8118457446102650E-005  0.99999786120187184     
         297   1.8118458402550414E-005  0.99999791399034577     
         298   1.8118459357976622E-005  0.99999796672243779     
         299   1.8118460294381740E-005  0.99999801840471358     
         300   1.8118461188466673E-005  0.99999806775124456     
         301   1.8118462060085579E-005  0.99999811585782550     
         302   1.8118462922814893E-005  0.99999816347377035     
         303   1.8118463712577321E-005  0.99999820706251075     
         304   1.8118464497530600E-005  0.99999825038582357     
         305   1.8118465260999091E-005  0.99999829252334338     
