#  Index          Path Flux       Relative Flux
           0 0 0
           1   3.0668875722003868E-008  0.14743622650055138     
           2   6.0475921966702155E-008  0.29072933125211370     
           3   8.7082165302534733E-008  0.41863503455691981     
           4   1.0788504533906874E-007  0.51864190017311484     
           5   1.2530786195376055E-007  0.60239959510675334     
           6   1.3517972932433809E-007  0.64985718327610453     
           7   1.4466074723331158E-007  0.69543581865073922     
           8   1.5113671344158165E-007  0.72656809846911519     
           9   1.5693402318650681E-007  0.75443783456229052     
          10   1.6185852286646122E-007  0.77811166130432319     
          11   1.6580827400499827E-007  0.79709952407310258     
          12   1.6885132138340378E-007  0.81172853840676495     
          13   1.7127425327475707E-007  0.82337643637234559     
          14   1.7342878433267205E-007  0.83373403578148586     
          15   1.7558245952018693E-007  0.84408752071628712     
          16   1.7756914833329397E-007  0.85363824257809995     
          17   1.7939356469408268E-007  0.86240886287206686     
          18   1.8108822483196477E-007  0.87055569871290517     
          19   1.8253108584410240E-007  0.87749204632872968     
          20   1.8391722231454058E-007  0.88415569883652512     
          21   1.8520375487280149E-007  0.89034051980549211     
          22   1.8637874738678194E-007  0.89598912799047947     
          23   1.8746544810388253E-007  0.90121328601039030     
          24   1.8849681029926944E-007  0.90617141201479656     
          25   1.8947865712150807E-007  0.91089149995621921     
          26   1.9032735227726391E-007  0.91497148033594222     
          27   1.9116708693814728E-007  0.91900838442021993     
          28   1.9199780244310657E-007  0.92300193020445043     
          29   1.9271870862024717E-007  0.92646758337615420     
          30   1.9333647218135425E-007  0.92943739319718466     
          31   1.9390559826133805E-007  0.93217338529537752     
          32   1.9447063088241100E-007  0.93488969867627347     
          33   1.9503457756360408E-007  0.93760079155676535     
          34   1.9555822832392995E-007  0.94011816757036337     
          35   1.9608051594940975E-007  0.94262899050846760     
          36   1.9656635881346775E-007  0.94496461047700586     
          37   1.9701304999523069E-007  0.94711201434166559     
          38   1.9745733191652020E-007  0.94924783603174290     
          39   1.9789517536167720E-007  0.95135270567017027     
          40   1.9831811257200579E-007  0.95338591572008358     
          41   1.9873680843749882E-007  0.95539873611230242     
          42   1.9911703575327785E-007  0.95722662446266249     
          43   1.9949257808134711E-007  0.95903199040576548     
          44   1.9985807207074052E-007  0.96078905040017981     
          45   2.0017214620446348E-007  0.96229891680471580     
          46   2.0047626685537383E-007  0.96376093326653678     
          47   2.0074615521130978E-007  0.96505838287428636     
          48   2.0100528237657228E-007  0.96630409959948982     
          49   2.0125899191248711E-007  0.96752377184771809     
          50   2.0149573540163601E-007  0.96866188225662508     
          51   2.0172154429851553E-007  0.96974742617965459     
          52   2.0194068324191805E-007  0.97080090525686136     
          53   2.0215772065071966E-007  0.97184428150753399     
          54   2.0235176663221566E-007  0.97277712976511910     
          55   2.0253956271946106E-007  0.97367993255143592     
          56   2.0271828750041980E-007  0.97453912633230833     
          57   2.0288646187386964E-007  0.97534760054050196     
          58   2.0305293162732650E-007  0.97614788003227837     
          59   2.0320653793358835E-007  0.97688632034444434     
          60   2.0335838530568657E-007  0.97761630483259832     
          61   2.0350309550040374E-007  0.97831197836294403     
          62   2.0364518593190761E-007  0.97899505775694140     
          63   2.0378463412926450E-007  0.97966543498879577     
          64   2.0392085936718485E-007  0.98032031830487065     
          65   2.0404274019851703E-007  0.98090624294121054     
          66   2.0415749720108414E-007  0.98145792079130101     
          67   2.0426458780816599E-007  0.98197274354336150     
          68   2.0437137080629738E-007  0.98248608750945976     
          69   2.0446567439520718E-007  0.98293943850348875     
          70   2.0455883841188001E-007  0.98338731116724010     
          71   2.0464850853365321E-007  0.98381838743178673     
          72   2.0473577360438346E-007  0.98423790175798487     
          73   2.0482134011718483E-007  0.98464925051027041     
          74   2.0490593761574153E-007  0.98505594086539272     
          75   2.0499041486665465E-007  0.98546205314719504     
          76   2.0506881289716915E-007  0.98583894044782205     
          77   2.0514551179859410E-007  0.98620765942876332     
          78   2.0521983107483944E-007  0.98656493870255180     
          79   2.0529153737179447E-007  0.98690965645272977     
          80   2.0535948906208808E-007  0.98723632446925680     
          81   2.0542727576349736E-007  0.98756219932535838     
          82   2.0549028274306348E-007  0.98786509635342779     
          83   2.0555258787509136E-007  0.98816461935000177     
          84   2.0561220597014331E-007  0.98845122480125103     
          85   2.0567056127557358E-007  0.98873175957229753     
          86   2.0572839561383147E-007  0.98900978986829502     
          87   2.0578418116768145E-007  0.98927797092675440     
          88   2.0583983318072152E-007  0.98954551000690072     
          89   2.0589478837062552E-007  0.98980969920964523     
          90   2.0594821076454473E-007  0.99006651971527670     
          91   2.0600154225695504E-007  0.99032290322492644     
          92   2.0605433801787783E-007  0.99057671128219726     
          93   2.0610687623785289E-007  0.99082928124825642     
          94   2.0615937878937002E-007  0.99108167974331385     
          95   2.0621066592999974E-007  0.99132823532464620     
          96   2.0626091795952060E-007  0.99156981475760975     
          97   2.0630536658485163E-007  0.99178349515630926     
          98   2.0634761712705600E-007  0.99198660858526821     
          99   2.0638865457286937E-007  0.99218389022711218     
         100   2.0642778039989751E-007  0.99237198203549903     
         101   2.0646442733672469E-007  0.99254815693436316     
         102   2.0649970454626480E-007  0.99271774706551796     
         103   2.0653441918366681E-007  0.99288463271171123     
         104   2.0656848400888065E-007  0.99304839447890003     
         105   2.0660208457075539E-007  0.99320992436659505     
         106   2.0663550722910559E-007  0.99337059900858193     
         107   2.0666881050879409E-007  0.99353069975475439     
         108   2.0670196405136487E-007  0.99369008066118436     
         109   2.0673387341639562E-007  0.99384348036232784     
         110   2.0676551385059178E-007  0.99399558721701031     
         111   2.0679540922749947E-007  0.99413930495877023     
         112   2.0682485178552302E-007  0.99428084583861409     
         113   2.0685293626150338E-007  0.99441585793359022     
         114   2.0688069976285834E-007  0.99454932698903664     
         115   2.0690791815736994E-007  0.99468017552142396     
         116   2.0693496604247870E-007  0.99481020435428380     
         117   2.0696157419294560E-007  0.99493811922584796     
         118   2.0698758718278424E-007  0.99506317294795277     
         119   2.0701211748448720E-007  0.99518109885925088     
         120   2.0703601672711495E-007  0.99529599104444855     
         121   2.0705967869901434E-007  0.99540974258461035     
         122   2.0708325929863593E-007  0.99552310293920376     
         123   2.0710662858441703E-007  0.99563544743278121     
         124   2.0712922755874023E-007  0.99574408876437737     
         125   2.0715100447406395E-007  0.99584877816509920     
         126   2.0717249756552194E-007  0.99595210312324645     
         127   2.0719370815539756E-007  0.99605406999550672     
         128   2.0721479569493123E-007  0.99615544532087597     
         129   2.0723530015519152E-007  0.99625401757616849     
         130   2.0725578094984296E-007  0.99635247606243693     
         131   2.0727570044335600E-007  0.99644823617389278     
         132   2.0729501876919013E-007  0.99654110625785375     
         133   2.0731419993355620E-007  0.99663331695770652     
         134   2.0733298057144787E-007  0.99672360218391165     
         135   2.0735169069539957E-007  0.99681354842445213     
         136   2.0736925443351192E-007  0.99689798357929771     
         137   2.0738678676619654E-007  0.99698226775704857     
         138   2.0740406523569321E-007  0.99706533152389110     
         139   2.0742117649379119E-007  0.99714759144588860     
         140   2.0743811092813268E-007  0.99722900131300807     
         141   2.0745449473288103E-007  0.99730776410724009     
         142   2.0747013557866359E-007  0.99738295523267806     
         143   2.0748576087375656E-007  0.99745807160040367     
         144   2.0750079680557561E-007  0.99753035468862039     
         145   2.0751471725486165E-007  0.99759727525436037     
         146   2.0752784924615515E-007  0.99766040542125334     
         147   2.0754078074872179E-007  0.99772257176731349     
         148   2.0755370020442553E-007  0.99778468019980593     
         149   2.0756616741807041E-007  0.99784461454338735     
         150   2.0757799690867179E-007  0.99790148312479543     
         151   2.0758978716776421E-007  0.99795816310634433     
         152   2.0760140533869027E-007  0.99801401579868643     
         153   2.0761301323273264E-007  0.99806981908638237     
         154   2.0762450456339519E-007  0.99812506201232831     
         155   2.0763578762992616E-007  0.99817930373829700     
         156   2.0764660304364877E-007  0.99823129729038407     
         157   2.0765725775714115E-007  0.99828251829913572     
         158   2.0766790422444533E-007  0.99833369966551899     
         159   2.0767820286907265E-007  0.99838320892421117     
         160   2.0768822922490640E-007  0.99843140919353568     
         161   2.0769809947841570E-007  0.99847885902329814     
         162   2.0770766701375775E-007  0.99852485357883813     
         163   2.0771703317253785E-007  0.99856988004540503     
         164   2.0772612621057368E-007  0.99861359352312040     
         165   2.0773473735357463E-007  0.99865499035949046     
         166   2.0774311894318891E-007  0.99869528365083926     
         167   2.0775090232944085E-007  0.99873270116522039     
         168   2.0775858051007428E-007  0.99876961291866206     
         169   2.0776621992503953E-007  0.99880633831170729     
         170   2.0777382100670832E-007  0.99884287942292138     
         171   2.0778140482456843E-007  0.99887933754084846     
         172   2.0778890837569825E-007  0.99891540978796833     
         173   2.0779588634320729E-007  0.99894895536712502     
         174   2.0780237064234224E-007  0.99898012770629463     
         175   2.0780863741667550E-007  0.99901025432614210     
         176   2.0781483152583608E-007  0.99904003161858168     
         177   2.0782092709574298E-007  0.99906933519767571     
         178   2.0782698930087853E-007  0.99909847838041121     
         179   2.0783300213867299E-007  0.99912738423672653     
         180   2.0783848319888015E-007  0.99915373364847193     
         181   2.0784391386422705E-007  0.99917984079414601     
         182   2.0784932428910397E-007  0.99920585063666023     
         183   2.0785452557715589E-007  0.99923085508384857     
         184   2.0785958377692194E-007  0.99925517165460109     
         185   2.0786453426267589E-007  0.99927897040567115     
         186   2.0786927221879790E-007  0.99930174745098199     
         187   2.0787387606552779E-007  0.99932387978460246     
         188   2.0787837984419780E-007  0.99934553105536039     
         189   2.0788254994941248E-007  0.99936557823878291     
         190   2.0788666238693752E-007  0.99938534819304892     
         191   2.0789076204533440E-007  0.99940505671348689     
         192   2.0789480316417558E-007  0.99942448381339699     
         193   2.0789851878262607E-007  0.99944234611680915     
         194   2.0790195681935393E-007  0.99945887398585531     
         195   2.0790535590670004E-007  0.99947521461132849     
         196   2.0790874386330215E-007  0.99949150172734447     
         197   2.0791210787298141E-007  0.99950767372195937     
         198   2.0791537922857316E-007  0.99952340029532183     
         199   2.0791862414053315E-007  0.99953899974471305     
         200   2.0792183038533696E-007  0.99955441330729011     
         201   2.0792501863266621E-007  0.99956974034958657     
         202   2.0792815491539230E-007  0.99958481757949758     
         203   2.0793124911376141E-007  0.99959969249489133     
         204   2.0793434224281598E-007  0.99961456226970857     
         205   2.0793729273239579E-007  0.99962874632568510     
         206   2.0794023088170985E-007  0.99964287105760175     
         207   2.0794316888491956E-007  0.99965699508714279     
         208   2.0794610247824010E-007  0.99967109791677322     
         209   2.0794900711981446E-007  0.99968506156503156     
         210   2.0795189710925222E-007  0.99969895477524229     
         211   2.0795477663248810E-007  0.99971279767068666     
         212   2.0795757759904419E-007  0.99972626291614686     
         213   2.0796034149254903E-007  0.99973954993822411     
         214   2.0796298418923403E-007  0.99975225432395232     
         215   2.0796547713595157E-007  0.99976423880816467     
         216   2.0796796468397940E-007  0.99977619733894962     
         217   2.0797038411671081E-007  0.99978782841520508     
         218   2.0797262837204210E-007  0.99979861735120479     
         219   2.0797481535802007E-007  0.99980913097299273     
         220   2.0797697978785643E-007  0.99981953615936114     
         221   2.0797913977370159E-007  0.99982991998187853     
         222   2.0798124211446617E-007  0.99984002668392913     
         223   2.0798329700374461E-007  0.99984990526975781     
         224   2.0798533844900121E-007  0.99985971922537742     
         225   2.0798737679308987E-007  0.99986951827257653     
         226   2.0798938904091503E-007  0.99987919186572727     
         227   2.0799138511963686E-007  0.99988878772823009     
         228   2.0799337848284417E-007  0.99989837053628583     
         229   2.0799530109218520E-007  0.99990761320526556     
         230   2.0799720710805985E-007  0.99991677610353269     
         231   2.0799903995684557E-007  0.99992558726150149     
         232   2.0800085231731554E-007  0.99993429992482741     
         233   2.0800262245925715E-007  0.99994280962862647     
         234   2.0800436562435179E-007  0.99995118964509810     
         235   2.0800610548931569E-007  0.99995955379666412     
         236   2.0800783822852177E-007  0.99996788369217027     
         237   2.0800953361192444E-007  0.99997603400500301     
         238   2.0801121568753832E-007  0.99998412034254747     
         239   2.0801287533536856E-007  0.99999209886173512     
         240   2.0801451888684339E-007   1.0000000000000000     
 
 
