#  Index          Path Flux       Relative Flux
           0 0 0
           1   3.0668789566027997E-008  0.14735731927552836     
           2   6.0475763986768177E-008  0.29057379141239642     
           3   8.7081939837995320E-008  0.41841107501856195     
           4   1.0788476235429715E-007  0.51836442181652143     
           5   1.2530750094124417E-007  0.60207715025933906     
           6   1.3517934815146825E-007  0.64950937571657041     
           7   1.4466034020731567E-007  0.69506362135819899     
           8   1.5113629571418091E-007  0.72617927530941717     
           9   1.5693358925292964E-007  0.75403409602492522     
          10   1.6185808060866535E-007  0.77769527911186864     
          11   1.6580782441558588E-007  0.79667299774533051     
          12   1.6885086593202539E-007  0.81129419560321325     
          13   1.7127379164320340E-007  0.82293586267436603     
          14   1.7342832342664900E-007  0.83328795130893507     
          15   1.7558199158189219E-007  0.84363589038499331     
          16   1.7756867727461757E-007  0.85318151256524855     
          17   1.7939308755755178E-007  0.86194743428423581     
          18   1.8108774493177612E-007  0.87008991956943338     
          19   1.8253060225329771E-007  0.87702255662505446     
          20   1.8391673476306772E-007  0.88368264245467665     
          21   1.8520327391512540E-007  0.88986420238165309     
          22   1.8637826427597414E-007  0.89550979297062927     
          23   1.8746496130277575E-007  0.90073115198088349     
          24   1.8853128324352986E-007  0.90585461283139779     
          25   1.8956264257661976E-007  0.91081008543675512     
          26   1.9041133910379098E-007  0.91488790027366462     
          27   1.9125108358684497E-007  0.91892270235259377     
          28   1.9208179755185741E-007  0.92291411462223794     
          29   1.9280270240319871E-007  0.92637791635193023     
          30   1.9342046400271131E-007  0.92934613565708257     
          31   1.9398958840389352E-007  0.93208066307988624     
          32   1.9455461451647835E-007  0.93479549905643888     
          33   1.9511856682369759E-007  0.93750517561580105     
          34   1.9564221588365326E-007  0.94002120323893534     
          35   1.9616450175742816E-007  0.94253068102870097     
          36   1.9665034359355869E-007  0.94486505260244569     
          37   1.9709703344819848E-007  0.94701130683871360     
          38   1.9754131442726222E-007  0.94914598691596253     
          39   1.9797915688906250E-007  0.95124973122243350     
          40   1.9840209262418747E-007  0.95328185172786339     
          41   1.9882078746338758E-007  0.95529359558773097     
          42   1.9920101393221146E-007  0.95712050672300286     
          43   1.9957655451966383E-007  0.95892490314781109     
          44   1.9994204729533317E-007  0.96068102187304649     
          45   2.0025612055000015E-007  0.96219008021929220     
          46   2.0056985437863551E-007  0.96369750769223572     
          47   2.0087397327298301E-007  0.96515873735425428     
          48   2.0114386415338456E-007  0.96645550834507743     
          49   2.0139756878403687E-007  0.96767450768576624     
          50   2.0163431166772746E-007  0.96881200926935818     
          51   2.0186341180413713E-007  0.96991278900095812     
          52   2.0208255054361601E-007  0.97096570623883938     
          53   2.0229958724409998E-007  0.97200852360529821     
          54   2.0248738334290400E-007  0.97291084580587228     
          55   2.0266610764292650E-007  0.97376957985157075     
          56   2.0283428164632194E-007  0.97457762185984220     
          57   2.0300075088522587E-007  0.97537747282017784     
          58   2.0315259964750885E-007  0.97610707535297925     
          59   2.0329730970018701E-007  0.97680237783268631     
          60   2.0343940157054379E-007  0.97748510047687620     
          61   2.0357884965549922E-007  0.97815512026793761     
          62   2.0371507471993134E-007  0.97880965409848342     
          63   2.0383976118464528E-007  0.97940874729551464     
          64   2.0396428465197263E-007  0.98000705732313231     
          65   2.0407904155241093E-007  0.98055844097590250     
          66   2.0418613190578299E-007  0.98107298842353496     
          67   2.0429291476466335E-007  0.98158605842244406     
          68   2.0438721810002677E-007  0.98203916683965031     
          69   2.0448038316954503E-007  0.98248680612012385     
          70   2.0457183103619031E-007  0.98292619458875907     
          71   2.0466150109229546E-007  0.98335704103799682     
          72   2.0474876608948578E-007  0.98377633166649925     
          73   2.0483433241875330E-007  0.98418746053984341     
          74   2.0491893034424946E-007  0.98459393642929927     
          75   2.0499777964755562E-007  0.98497279135400773     
          76   2.0507617744534900E-007  0.98534947688621843     
          77   2.0515049651109730E-007  0.98570656493744901     
          78   2.0522220360074756E-007  0.98605110297280785     
          79   2.0529015531203890E-007  0.98637759717612550     
          80   2.0535316223153008E-007  0.98668033265683430     
          81   2.0541546714777847E-007  0.98697969515421236     
          82   2.0547640313043750E-007  0.98727248020308833     
          83   2.0553621722409502E-007  0.98755987480264662     
          84   2.0559583519191802E-007  0.98784632705731212     
          85   2.0565366934053304E-007  0.98812420842214865     
          86   2.0570945473123196E-007  0.98839224592034969     
          87   2.0576510721556468E-007  0.98865964483039259     
          88   2.0582006224883240E-007  0.98892369262939672     
          89   2.0587465915035302E-007  0.98918601967792619     
          90   2.0592808227506127E-007  0.98944270696672121     
          91   2.0598087807059573E-007  0.98969638006595551     
          92   2.0603341591533437E-007  0.98994881376388588     
          93   2.0608591887708332E-007  0.99020107985611927     
          94   2.0613720598819850E-007  0.99044750403243209     
          95   2.0618745784415466E-007  0.99068895401748536     
          96   2.0623567156988286E-007  0.99092061119979102     
          97   2.0628229298606882E-007  0.99114461765740491     
          98   2.0632674140923778E-007  0.99135818332389791     
          99   2.0636899194128146E-007  0.99156118856890507     
         100   2.0641002926830447E-007  0.99175836460962630     
         101   2.0644915507702418E-007  0.99194635619224192     
         102   2.0648588103378249E-007  0.99212281697247851     
         103   2.0652252789111430E-007  0.99229889769599922     
         104   2.0655724295833527E-007  0.99246569655948669     
         105   2.0659130769619396E-007  0.99262937072216839     
         106   2.0662490863636060E-007  0.99279081643092171     
         107   2.0665833121783822E-007  0.99295140516231606     
         108   2.0669163444670522E-007  0.99311142042860157     
         109   2.0672478791888841E-007  0.99327071614436735     
         110   2.0675669719216495E-007  0.99342403373650567     
         111   2.0678839320647750E-007  0.99357632666253592     
         112   2.0682003354525905E-007  0.99372835207892152     
         113   2.0684992885853900E-007  0.99387199300137630     
         114   2.0687937133086783E-007  0.99401345811482267     
         115   2.0690713475503701E-007  0.99414685574209694     
         116   2.0693435315718714E-007  0.99427763464901042     
         117   2.0696140103017298E-007  0.99440759419784486     
         118   2.0698800913955636E-007  0.99453544077168121     
         119   2.0701402239401893E-007  0.99466042918816178     
         120   2.0703851757722691E-007  0.99477812357987949     
         121   2.0706241722413663E-007  0.99489295654036092     
         122   2.0708607917865148E-007  0.99500664743704992     
         123   2.0710944839179230E-007  0.99511893177075650     
         124   2.0713204730047678E-007  0.99522751494764150     
         125   2.0715382418290430E-007  0.99533214845493367     
         126   2.0717531724355539E-007  0.99543541825610249     
         127   2.0719652782247135E-007  0.99553733078977480     
         128   2.0721709852255263E-007  0.99563616883530870     
         129   2.0723760309411103E-007  0.99573468914669028     
         130   2.0725808412417887E-007  0.99583309634597994     
         131   2.0727800357221599E-007  0.99592880525740857     
         132   2.0729728558846527E-007  0.99602145143826304     
         133   2.0731646668144422E-007  0.99611361270325427     
         134   2.0733562949566799E-007  0.99620568614253058     
         135   2.0735440990227164E-007  0.99629592219068186     
         136   2.0737194221944050E-007  0.99638016142200614     
         137   2.0738922059783547E-007  0.99646318052897909     
         138   2.0740648216533540E-007  0.99654611886300781     
         139   2.0742359350302272E-007  0.99662833537322881     
         140   2.0743997735276125E-007  0.99670705645127089     
         141   2.0745561838761619E-007  0.99678220845431809     
         142   2.0747124369916535E-007  0.99685728491006698     
         143   2.0748627953308589E-007  0.99692952904525967     
         144   2.0750093608285571E-007  0.99699995079696457     
         145   2.0751485665598355E-007  0.99706683633003990     
         146   2.0752798860323573E-007  0.99712993267558625     
         147   2.0754092008013182E-007  0.99719206580169417     
         148   2.0755383952045014E-007  0.99725414109448485     
         149   2.0756630669168429E-007  0.99731404332597196     
         150   2.0757813640623298E-007  0.99737088270725682     
         151   2.0758992670133017E-007  0.99742753268606510     
         152   2.0760154483662013E-007  0.99748335547188527     
         153   2.0761315270800960E-007  0.99753912894174346     
         154   2.0762443627106116E-007  0.99759334417575440     
         155   2.0763525164664327E-007  0.99764530986384603     
         156   2.0764590644279426E-007  0.99769650400031040     
         157   2.0765655289025646E-007  0.99774765802301668     
         158   2.0766713589612403E-007  0.99779850722171637     
         159   2.0767770406003455E-007  0.99784928510782001     
         160   2.0768757422236141E-007  0.99789670923775409     
         161   2.0769730965170982E-007  0.99794348600302840     
         162   2.0770687715814510E-007  0.99798945593273236     
         163   2.0771548827941732E-007  0.99803083062552544     
         164   2.0772396023586416E-007  0.99807153665953230     
         165   2.0773234181287353E-007  0.99811180843865632     
         166   2.0774012514325255E-007  0.99814920576394750     
         167   2.0774780330902080E-007  0.99818609779459400     
         168   2.0775544270131976E-007  0.99822280352657755     
         169   2.0776304299882189E-007  0.99825932141598428     
         170   2.0777062707267838E-007  0.99829576135406117     
         171   2.0777813066728794E-007  0.99833181460566456     
         172   2.0778510867211455E-007  0.99836534250486408     
         173   2.0779159286482621E-007  0.99839649773691519     
         174   2.0779768842606782E-007  0.99842578567350326     
         175   2.0780375062792764E-007  0.99845491332502168     
         176   2.0780976344956233E-007  0.99848380371456447     
         177   2.0781565586170012E-007  0.99851211556087394     
         178   2.0782148969227716E-007  0.99854014593465479     
         179   2.0782731926694655E-007  0.99856815585966174     
         180   2.0783274986659146E-007  0.99859424879052261     
         181   2.0783816020337712E-007  0.99862024436245067     
         182   2.0784336147655082E-007  0.99864523542608707     
         183   2.0784847946472681E-007  0.99866982632218604     
         184   2.0785353764911514E-007  0.99869412987320361     
         185   2.0785848811911706E-007  0.99871791587842129     
         186   2.0786322557925993E-007  0.99874067841442959     
         187   2.0786782941706307E-007  0.99876279892217212     
         188   2.0787212796764751E-007  0.99878345258669088     
         189   2.0787629799424875E-007  0.99880348871951397     
         190   2.0788039773028440E-007  0.99882318712041263     
         191   2.0788446753311193E-007  0.99884274169831189     
         192   2.0788850867305252E-007  0.99886215855684757     
         193   2.0789233110607447E-007  0.99888052457295695     
         194   2.0789611034687775E-007  0.99889868305920793     
         195   2.0789982624880577E-007  0.99891653721499796     
         196   2.0790322529199815E-007  0.99893286892877009     
         197   2.0790661327847376E-007  0.99894914751725861     
         198   2.0790997728871087E-007  0.99896531090477969     
         199   2.0791322223911825E-007  0.99898090223394453     
         200   2.0791642848003952E-007  0.99899630757187263     
         201   2.0791961667003012E-007  0.99901162617873662     
         202   2.0792275294286972E-007  0.99902669533421029     
         203   2.0792584713320925E-007  0.99904156229179852     
         204   2.0792894028680893E-007  0.99905642426806196     
         205   2.0793189081719723E-007  0.99907060096869515     
         206   2.0793482895517084E-007  0.99908471812628696     
         207   2.0793776698938008E-007  0.99909883478531192     
         208   2.0794069848029128E-007  0.99911292000511576     
         209   2.0794360312914578E-007  0.99912687625427632     
         210   2.0794649318659012E-007  0.99914076239466776     
         211   2.0794937268100518E-007  0.99915459778184401     
         212   2.0795216771041713E-007  0.99916802733179588     
         213   2.0795493159417302E-007  0.99918130723318166     
         214   2.0795754247650291E-007  0.99919385199371902     
         215   2.0796003528733707E-007  0.99920582944464487     
         216   2.0796252283264610E-007  0.99921778159578944     
         217   2.0796494225839455E-007  0.99922940644624891     
         218   2.0796726364515318E-007  0.99924056023922847     
         219   2.0796950785231956E-007  0.99925134319990661     
         220   2.0797169483186426E-007  0.99926185119345901     
         221   2.0797385926479301E-007  0.99927225085509042     
         222   2.0797600914536659E-007  0.99928258059560404     
         223   2.0797811144658657E-007  0.99929268172696495     
         224   2.0798016632875348E-007  0.99930255501938459     
         225   2.0798220775861126E-007  0.99931236367618481     
         226   2.0798424611301464E-007  0.99932215755604992     
         227   2.0798625836301572E-007  0.99933182600955150     
         228   2.0798825484048029E-007  0.99934141867921134     
         229   2.0799017740956455E-007  0.99935065623408026     
         230   2.0799209039955029E-007  0.99935984776332187     
         231   2.0799399643325419E-007  0.99936900586903876     
         232   2.0799582927657544E-007  0.99937781230979794     
         233   2.0799759942518257E-007  0.99938631751516005     
         234   2.0799935176584689E-007  0.99939473715696547     
         235   2.0800109492033516E-007  0.99940311266105641     
         236   2.0800283478406340E-007  0.99941147235371230     
         237   2.0800456756729926E-007  0.99941979802603698     
         238   2.0800628370110382E-007  0.99942804370121807     
         239   2.0800797899923587E-007  0.99943618926521471     
         240   2.0800966106968231E-007  0.99944427127286251     
         241   2.0801132069569602E-007  0.99945224543955902     
         242   2.0801296424625032E-007  0.99946014236693059     
         243   2.0801459599173038E-007  0.99946798257331249     
         244   2.0801617691696071E-007  0.99947557859869240     
         245   2.0801769835282717E-007  0.99948288878973368     
         246   2.0801916098382417E-007  0.99948991643529306     
         247   2.0802061639193542E-007  0.99949690937635016     
         248   2.0802206700835443E-007  0.99950387929429696     
         249   2.0802351530849175E-007  0.99951083808297958     
         250   2.0802494655293310E-007  0.99951771492249919     
         251   2.0802637097716511E-007  0.99952455899229486     
         252   2.0802777390035667E-007  0.99953129975394817     
         253   2.0802917117325072E-007  0.99953801336706671     
         254   2.0803055180036519E-007  0.99954464700058754     
         255   2.0803193102407062E-007  0.99955127389101228     
         256   2.0803330181826215E-007  0.99955786027933080     
         257   2.0803466094021214E-007  0.99956439058489399     
         258   2.0803598956810668E-007  0.99957077437269992     
         259   2.0803730542058383E-007  0.99957709677721407     
         260   2.0803860536519704E-007  0.99958334274766547     
         261   2.0803986807486964E-007  0.99958940981177236     
         262   2.0804112180649140E-007  0.99959543373816417     
         263   2.0804234196560464E-007  0.99960129635545558     
         264   2.0804355141329180E-007  0.99960710750651527     
         265   2.0804475339821291E-007  0.99961288280049621     
         266   2.0804594944828060E-007  0.99961862957870917     
         267   2.0804708511942474E-007  0.99962408624842924     
         268   2.0804821366369554E-007  0.99962950867496725     
         269   2.0804931426379620E-007  0.99963479683543011     
         270   2.0805038043221171E-007  0.99963991955862286     
         271   2.0805144597710429E-007  0.99964503928591442     
         272   2.0805249100270375E-007  0.99965006042216042     
         273   2.0805353544899406E-007  0.99965507877494331     
         274   2.0805455768524383E-007  0.99965999041298204     
         275   2.0805554221954559E-007  0.99966472090080027     
         276   2.0805651865937719E-007  0.99966941249632957     
         277   2.0805748728470288E-007  0.99967406654474156     
         278   2.0805843158585179E-007  0.99967860372041295     
         279   2.0805937294038328E-007  0.99968312673818482     
         280   2.0806030944485824E-007  0.99968762645241782     
         281   2.0806124207859243E-007  0.99969210756852578     
         282   2.0806215840010011E-007  0.99969651030769080     
         283   2.0806306720474600E-007  0.99970087692985821     
         284   2.0806396159245481E-007  0.99970517428156414     
         285   2.0806485460963722E-007  0.99970946504816860     
         286   2.0806572958243616E-007  0.99971366911516679     
         287   2.0806660069215682E-007  0.99971785462085672     
         288   2.0806744735209327E-007  0.99972192265028792     
         289   2.0806829192887844E-007  0.99972598067059926     
         290   2.0806911564526822E-007  0.99972993846093794     
         291   2.0806993117143687E-007  0.99973385689892369     
         292   2.0807074262959284E-007  0.99973775579093271     
         293   2.0807155147916309E-007  0.99974164214921613     
         294   2.0807231176078321E-007  0.99974529514834054     
         295   2.0807306669002948E-007  0.99974892243039337     
         296   2.0807381352422279E-007  0.99975251081735694     
         297   2.0807456001728424E-007  0.99975609756525119     
         298   2.0807528727800000E-007  0.99975959190562147     
         299   2.0807601436797866E-007  0.99976308542563463     
         300   2.0807674006224586E-007  0.99976657223953702     
         301   2.0807744601167309E-007  0.99976996418348429     
         302   2.0807814858020603E-007  0.99977333988291972     
         303   2.0807884446378581E-007  0.99977668346250970     
         304   2.0807953267067253E-007  0.99977999015714514     
         305   2.0808021400910894E-007  0.99978326385026872     
         306   2.0808089439745206E-007  0.99978653297838649     
