#  Index          Path Flux       Relative Flux
	   0 0 0 
           1   3.1486592545129708E-014   8.5560960510357220E-002
           2   5.7839781998488843E-014  0.15717252657324618     
           3   7.8387836715363220E-014  0.21300934968058141     
           4   9.7703773924335143E-014  0.26549804430158835     
           5   1.1623757223984040E-013  0.31586137223257954     
           6   1.3341445042543413E-013  0.36253743583083409     
           7   1.4946936953316779E-013  0.40616471299030732     
           8   1.6432061086862194E-013  0.44652114316328667     
           9   1.7771069872108747E-013  0.48290706762726066     
          10   1.9047512537481104E-013  0.51759283437992643     
          11   2.0302760509255417E-013  0.55170266128156764     
          12   2.1411433912731338E-013  0.58182950373291420     
          13   2.2487584376640656E-013  0.61107257511759150     
          14   2.3533805213193249E-013  0.63950234552005303     
          15   2.4552080286517921E-013  0.66717272401926275     
          16   2.5553135194250225E-013  0.69437516560020518     
          17   2.6418240392817734E-013  0.71788334027037559     
          18   2.7175825518394781E-013  0.73846978858796519     
          19   2.7932629628046021E-013  0.75903501375392612     
          20   2.8526518138895271E-013  0.77517320697108560     
          21   2.9101142812140931E-013  0.79078792898502848     
          22   2.9671229708110617E-013  0.80627934245684896     
          23   3.0235641568852669E-013  0.82161654379399318     
          24   3.0703259636996957E-013  0.83432349231663083     
          25   3.1097974453073607E-013  0.84504938421578812     
          26   3.1460953942021017E-013  0.85491290745203075     
          27   3.1803077753567784E-013  0.86420970318737411     
          28   3.2091185001102876E-013  0.87203866492522042     
          29   3.2375254516548679E-013  0.87975790623671446     
          30   3.2620129305180908E-013  0.88641207883100659     
          31   3.2850435348535560E-013  0.89267036360809715     
          32   3.3035527501066259E-013  0.89770001625493645     
          33   3.3219452718958788E-013  0.90269795888159765     
          34   3.3382943211191965E-013  0.90714061285558101     
          35   3.3542430770086062E-013  0.91147449201664699     
          36   3.3677921060343172E-013  0.91515627478104411     
          37   3.3797406630632879E-013  0.91840314887402896     
          38   3.3890606574444850E-013  0.92093574324753380     
          39   3.3981663197138842E-013  0.92341009549360820     
          40   3.4068068056761998E-013  0.92575804177313137     
          41   3.4152685338254782E-013  0.92805741280539555     
          42   3.4233444657357699E-013  0.93025194843280723     
          43   3.4313506796510291E-013  0.93242753904858799     
          44   3.4384462729918584E-013  0.93435567967149624     
          45   3.4453414769337725E-013  0.93622936692850689     
          46   3.4517364574325159E-013  0.93796712458879750     
          47   3.4580131188635528E-013  0.93967273049095446     
          48   3.4642066345441914E-013  0.94135574255334842     
          49   3.4703252176153351E-013  0.94301839259647113     
          50   3.4763951255288220E-013  0.94466781576140391     
          51   3.4821319288668372E-013  0.94622672183596901     
          52   3.4877974217096392E-013  0.94776625015647531     
          53   3.4934485250493501E-013  0.94930186830567942     
          54   3.4984719876749364E-013  0.95066693277468162     
          55   3.5032502622456314E-013  0.95196537039147000     
          56   3.5080044826003708E-013  0.95325727156955520     
          57   3.5126802759304421E-013  0.95452786116382582     
          58   3.5172706247813568E-013  0.95577523226693573     
          59   3.5217570809901950E-013  0.95699437181646185     
          60   3.5260684654304677E-013  0.95816593775618819     
          61   3.5303413774915643E-013  0.95932704929786961     
          62   3.5343036417457772E-013  0.96040374610112145     
          63   3.5382618582951339E-013  0.96147934299013227     
          64   3.5421662740027624E-013  0.96254032015905777     
          65   3.5460104593680555E-013  0.96358493046982074     
          66   3.5497437651972148E-013  0.96459941062407673     
          67   3.5534061364848472E-013  0.96559461518508549     
          68   3.5569430250127960E-013  0.96655572134236689     
          69   3.5603325477333545E-013  0.96747678264560888     
          70   3.5635658674100469E-013  0.96835539768398859     
          71   3.5667705398430552E-013  0.96922622818460957     
          72   3.5697815489133611E-013  0.97004443303733068     
          73   3.5727684842640023E-013  0.97085609615145430     
          74   3.5757032398645338E-013  0.97165358005729363     
          75   3.5783726321498894E-013  0.97237895473093161     
          76   3.5809347081782074E-013  0.97307516752553380     
          77   3.5834161674211458E-013  0.97374947369565623     
          78   3.5857710805239381E-013  0.97438939250142897     
          79   3.5881154658683923E-013  0.97502645051775894     
          80   3.5903459379089981E-013  0.97563255398834636     
          81   3.5923903676031382E-013  0.97618810272889611     
          82   3.5944265503215805E-013  0.97674141045476326     
          83   3.5963881816561532E-013  0.97727445975475558     
          84   3.5982872965663554E-013  0.97779052098177965     
          85   3.6001474868669287E-013  0.97829600492266966     
          86   3.6020037392609322E-013  0.97880041878565893     
          87   3.6037638070391792E-013  0.97927869565685199     
          88   3.6055151102139969E-013  0.97975459085436334     
          89   3.6072282858779157E-013  0.98022012536756209     
          90   3.6088877739141797E-013  0.98067107092521388     
          91   3.6105450199132725E-013  0.98112140723671248     
          92   3.6121475532770478E-013  0.98155687605938036     
          93   3.6136934088591038E-013  0.98197694338874109     
          94   3.6152364118899500E-013  0.98239623557223277     
          95   3.6167672763575438E-013  0.98281222924976630     
          96   3.6182710084947917E-013  0.98322085004869475     
          97   3.6197721225496132E-013  0.98362875941577543     
          98   3.6211730867448878E-013  0.98400945428460418     
          99   3.6225397367482381E-013  0.98438082469186727     
         100   3.6238276306364326E-013  0.98473079408900477     
         101   3.6250824522785801E-013  0.98507177650816447     
         102   3.6263292370839959E-013  0.98541057501533280     
         103   3.6275421033102046E-013  0.98574015656384828     
         104   3.6287410346622058E-013  0.98606595148089493     
         105   3.6299297936071999E-013  0.98638898217087256     
         106   3.6310920112997567E-013  0.98670480060043031     
         107   3.6322397448847388E-013  0.98701668315107560     
         108   3.6333291358538066E-013  0.98731271181010305     
         109   3.6344094668456863E-013  0.98760627853124583     
         110   3.6354694227388711E-013  0.98789430856875948     
         111   3.6364393445247008E-013  0.98815787293983759     
         112   3.6374080532159905E-013  0.98842110766732572     
         113   3.6383347699789428E-013  0.98867293160237246     
         114   3.6392367660744092E-013  0.98891803799867128     
         115   3.6400902059426357E-013  0.98914994983466509     
         116   3.6409182671184529E-013  0.98937496532169411     
         117   3.6417461956309829E-013  0.98959994475909896     
         118   3.6425512144738657E-013  0.98981869877424766     
         119   3.6433536509343739E-013  0.99003675105860078     
         120   3.6441560812223356E-013  0.99025480166563995     
         121   3.6449444290050862E-013  0.99046902552429239     
         122   3.6457197860876794E-013  0.99067971931921506     
         123   3.6464948073813875E-013  0.99089032186761916     
         124   3.6472521603738116E-013  0.99109612327145258     
         125   3.6479988551555424E-013  0.99129902843701279     
         126   3.6487054458310235E-013  0.99149103580267217     
         127   3.6494110702457734E-013  0.99168278059880732     
         128   3.6501096191548282E-013  0.99187260271289146     
         129   3.6508059153816325E-013  0.99206181268815219     
         130   3.6514389635523424E-013  0.99223383577848068     
         131   3.6520698745917476E-013  0.99240527812954082     
         132   3.6526960745548139E-013  0.99257544030328093     
         133   3.6533162677113152E-013  0.99274397020087513     
         134   3.6539006341997868E-013  0.99290276464003857     
         135   3.6544652384033866E-013  0.99305618892022685     
         136   3.6550172808870341E-013  0.99320619970680435     
         137   3.6555620260973932E-013  0.99335422754870217     
         138   3.6560972861999362E-013  0.99349967792867211     
         139   3.6565788242359447E-013  0.99363052999475099     
         140   3.6570362267605426E-013  0.99375482353108202     
         141   3.6574766203426581E-013  0.99387449509552450     
         142   3.6579044138187561E-013  0.99399074273541299     
         143   3.6583218495243928E-013  0.99410417577798305     
         144   3.6587259080306533E-013  0.99421397373039244     
         145   3.6591284620967545E-013  0.99432336286960654     
         146   3.6595248111639149E-013  0.99443106587632291     
         147   3.6599110857912136E-013  0.99453603127734258     
         148   3.6602787960641484E-013  0.99463595204233723     
         149   3.6606394016543893E-013  0.99473394219678846     
         150   3.6609990796312490E-013  0.99483168028365965     
         151   3.6613584420530605E-013  0.99492933262230965     
         152   3.6617177020019085E-013  0.99502695711518641     
         153   3.6620740109272460E-013  0.99512377970355193     
         154   3.6624271876975946E-013  0.99521975116714445     
         155   3.6627581682903493E-013  0.99530969109121148     
         156   3.6630837756418952E-013  0.99539817090276161     
         157   3.6633800189136376E-013  0.99547867138511348     
         158   3.6636752146217666E-013  0.99555888720487817     
         159   3.6639622667237419E-013  0.99563689009936840     
         160   3.6642460667279789E-013  0.99571400927611187     
         161   3.6645296984710338E-013  0.99579108272993899     
         162   3.6648100200067908E-013  0.99586725667545795     
         163   3.6650885356170599E-013  0.99594293988283444     
         164   3.6653589110852450E-013  0.99601641110625505     
         165   3.6656091892367842E-013  0.99608442112991757     
         166   3.6658577348851680E-013  0.99615196036705767     
         167   3.6661015496260478E-013  0.99621821403800137     
         168   3.6663425330421916E-013  0.99628369833111052     
         169   3.6665796647249370E-013  0.99634813596282334     
         170   3.6668160083283605E-013  0.99641235944362838     
         171   3.6670497237070508E-013  0.99647586873653815     
         172   3.6672788489780762E-013  0.99653813072388409     
         173   3.6674968731541144E-013  0.99659737612457200     
         174   3.6677119921974532E-013  0.99665583209101472     
         175   3.6679166170545172E-013  0.99671143639081183     
         176   3.6681188423548325E-013  0.99676638864043887     
         177   3.6683177912326021E-013  0.99682045056235069     
         178   3.6685100226685047E-013  0.99687268710167309     
         179   3.6686997540565188E-013  0.99692424428358839     
         180   3.6688885576188166E-013  0.99697554934022425     
         181   3.6690748942483284E-013  0.99702618403807686     
         182   3.6692610917108989E-013  0.99707678091901686     
         183   3.6694440627739664E-013  0.99712650106539091     
         184   3.6696242888257993E-013  0.99717547528856776     
         185   3.6698020420676310E-013  0.99722377755589986     
         186   3.6699716143550138E-013  0.99726985674901558     
         187   3.6701364098417789E-013  0.99731463790504316     
         188   3.6703009952207107E-013  0.99735936196683916     
         189   3.6704639552240927E-013  0.99740364435272821     
         190   3.6706257632545664E-013  0.99744761370408241     
         191   3.6707869214047338E-013  0.99749140645841938     
         192   3.6709479725948070E-013  0.99753517014766035     
         193   3.6711039139799242E-013  0.99757754530996101     
         194   3.6712578735519615E-013  0.99761938193881938     
         195   3.6714033390910615E-013  0.99765891041821497     
         196   3.6715476730912618E-013  0.99769813141576724     
         197   3.6716833738765065E-013  0.99773500644284718     
         198   3.6718177019396449E-013  0.99777150844950013     
         199   3.6719487809343760E-013  0.99780712756158996     
         200   3.6720793935080377E-013  0.99784261992946433     
         201   3.6722088204828309E-013  0.99787779012536082     
         202   3.6723379325312634E-013  0.99791287474387425     
         203   3.6724633596262488E-013  0.99794695802140143     
         204   3.6725877701896071E-013  0.99798076506890365     
         205   3.6727073880917117E-013  0.99801326976938409     
         206   3.6728221061330991E-013  0.99804444299270101     
         207   3.6729338072907243E-013  0.99807479641478958     
         208   3.6730445229328313E-013  0.99810488203510117     
         209   3.6731551591969312E-013  0.99813494608541120     
         210   3.6732604723541386E-013  0.99816356364659098     
         211   3.6733647096740284E-013  0.99819188886215060     
         212   3.6734674589537156E-013  0.99821980972100244     
         213   3.6735665961733625E-013  0.99824674904675892     
         214   3.6736642570453976E-013  0.99827328719312580     
         215   3.6737614537410975E-013  0.99829969920525641     
         216   3.6738575379029806E-013  0.99832580889994238     
         217   3.6739535040202394E-013  0.99835188651744688     
         218   3.6740493259054963E-013  0.99837792494167055     
         219   3.6741435100765728E-013  0.99840351833711538     
         220   3.6742335580553959E-013  0.99842798777295250     
         221   3.6743215714352077E-013  0.99845190433141673     
         222   3.6744095741410535E-013  0.99847581798936147     
         223   3.6744962749426943E-013  0.99849937787077692     
         224   3.6745770889296835E-013  0.99852133808237986     
         225   3.6746577702971349E-013  0.99854326225624701     
         226   3.6747354565191302E-013  0.99856437253600439     
         227   3.6748125715020241E-013  0.99858532758852925     
         228   3.6748896766146792E-013  0.99860627995893769     
         229   3.6749655300537136E-013  0.99862689220236311     
         230   3.6750408439903785E-013  0.99864735784262459     
         231   3.6751155651803475E-013  0.99866766241122806     
         232   3.6751879274587922E-013  0.99868732597450360     
         233   3.6752584565537315E-013  0.99870649139260437     
         234   3.6753278326911207E-013  0.99872534350860587     
         235   3.6753970294793730E-013  0.99874414688867497     
         236   3.6754657162504911E-013  0.99876281167783187     
         237   3.6755342536209215E-013  0.99878143586918078     
         238   3.6756010188245543E-013  0.99879957849589818     
         239   3.6756665867260896E-013  0.99881739577042850     
         240   3.6757308822611436E-013  0.99883486729494442     
         241   3.6757950887134894E-013  0.99885231461232504     
         242   3.6758548063405212E-013  0.99886854214638077     
         243   3.6759144110678719E-013  0.99888473900133024     
         244   3.6759715458232325E-013  0.99890026467162996     
         245   3.6760285449054155E-013  0.99891575347440464     
         246   3.6760855417540423E-013  0.99893124167023783     
         247   3.6761423907972651E-013  0.99894668970176193     
         248   3.6761987569977645E-013  0.99896200652668710     
         249   3.6762526803806867E-013  0.99897665954584181     
         250   3.6763055496186414E-013  0.99899102611400681     
         251   3.6763566924611466E-013  0.99900492355534387     
         252   3.6764076054232907E-013  0.99901875852950695     
         253   3.6764564322614831E-013  0.99903202662502555     
         254   3.6765049330073918E-013  0.99904520610895819     
         255   3.6765528970124669E-013  0.99905823974014030     
         256   3.6765998234007901E-013  0.99907099141167299     
         257   3.6766463258253613E-013  0.99908362787624660     
         258   3.6766905549342701E-013  0.99909564659511974     
         259   3.6767345284776349E-013  0.99910759586718523     
         260   3.6767781270426409E-013  0.99911944324347224     
         261   3.6768214092461950E-013  0.99913120465240768     
         262   3.6768638600131716E-013  0.99914274012863213     
         263   3.6769057230096823E-013  0.99915411588542813     
         264   3.6769469244173112E-013  0.99916531186354507     
         265   3.6769879043147205E-013  0.99917644764897162     
         266   3.6770282465828813E-013  0.99918741016645607     
         267   3.6770683947265097E-013  0.99919831993297537     
         268   3.6771081847388028E-013  0.99920913238168863     
         269   3.6771477336603338E-013  0.99921987931693890     
         270   3.6771863614651107E-013  0.99923037594998798     
         271   3.6772247129141331E-013  0.99924079748674399     
         272   3.6772621539318321E-013  0.99925097162493393     
         273   3.6772995741034584E-013  0.99926114009845868     
         274   3.6773367338673521E-013  0.99927123780937011     
         275   3.6773726697667027E-013  0.99928100295007516     
         276   3.6774079380464452E-013  0.99929058667332493     
         277   3.6774429304277195E-013  0.99930009542454368     
         278   3.6774773778700444E-013  0.99930945609527433     
         279   3.6775112353516690E-013  0.99931865645140716     
         280   3.6775446990133719E-013  0.99932774979179761     
         281   3.6775765287556546E-013  0.99933639913458894     
         282   3.6776083206430960E-013  0.99934503819079046     
         283   3.6776398012209432E-013  0.99935359265242096     
         284   3.6776711397162858E-013  0.99936210850487028     
         285   3.6777023511816694E-013  0.99937058983848337     
         286   3.6777333964530374E-013  0.99937902601090733     
         287   3.6777641991348181E-013  0.99938739626258088     
         288   3.6777945049590004E-013  0.99939563149928490     
         289   3.6778247136629431E-013  0.99940384034475271     
         290   3.6778534247316067E-013  0.99941164222616818     
         291   3.6778821234614594E-013  0.99941944075466282     
         292   3.6779093675425238E-013  0.99942684400015769     
         293   3.6779363804661530E-013  0.99943418443144949     
         294   3.6779632119179264E-013  0.99944147554998608     
         295   3.6779898559393129E-013  0.99944871573660976     
         296   3.6780164354623417E-013  0.99945593839659430     
         297   3.6780428878716807E-013  0.99946312651498981     
         298   3.6780691053832660E-013  0.99947025080279650     
         299   3.6780939825243846E-013  0.99947701086133822     
         300   3.6781185763018209E-013  0.99948369391926839     
         301   3.6781429885180362E-013  0.99949032764015955     
         302   3.6781668203575059E-013  0.99949680365077531     
         303   3.6781904372563376E-013  0.99950322125390401     
         304   3.6782136013127408E-013  0.99950951580264680     
         305   3.6782367607024720E-013  0.99951580908327853     
         306   3.6782594771968706E-013  0.99952198201252573     
