# Thermal barrier crossing pathway for \lamda=0.3\lambda_0
# Index along the path followed by energy at that eigenstate
           1  0.12648116052150726       
           2  0.13073851168155670      
           3  0.13345110416412354     
           4  0.13616231083869934    
           5  0.13887156546115875   
           6  0.14157786965370178     
           7  0.14427921175956726     
           8  0.14536692202091217    
           9  0.14265781641006470   
          10  0.13994504511356354  
          11  0.13723039627075195 
          12  0.13451461493968964      
          13  0.13179811835289001     
          14  0.12908110022544861    
          15  0.12636369466781616   
	  16 0.12364601343870163 
