! Data for the pre committor state (committor to R from L) for various coupling strengths for dominant thermal transition pathways; Direction is B to 1
! Factor multiplying labmda, average energy, average Q_c, average Q_t, diabatic state 2 character, diabatic state 1 character, forward committor, energy of lowest eigenstate in system 

0.05 0.14418798522053580       -3.9965859339788121E-016  -4.8306305733258634        1.9824528589426418E-004  0.99980175790625458        4.9964262925765637E-003 0.12368100881576538 
0.1  0.14401851849014310        3.7432374355603990E-017  -4.8258685910557979        7.2215747811974428E-004  0.99927784760799643        1.2507062685383912E-002 0.12367803603410721 
0.15 0.14384614550055735        3.6587124235897360E-016  -4.8162660334023784        1.7786411435968600E-003  0.99822135155749570        1.9339865030772476E-002 0.12368100881576538
0.2  0.14368261685932748        7.7447988443045666E-017  -4.8108914904711533        2.3699545656638596E-003  0.99763003910558379        2.5455797978805362E-002 0.12366608530282974 
0.25 0.14352544348169105        1.3322333623531135E-015  -4.8023140532859196        3.3136457174273502E-003  0.99668635838533526        3.1255849786662432E-002 0.12365707755088806 
0.3   0.14337149153766240       -7.9437141515073453E-016  -4.7912123827138764        4.5350684986627402E-003  0.99546493259207813        3.7088115601847542E-002 0.12364601343870163 
0.35    0.14321606049627530        4.4408438059848684E-016  -4.7776109260989701        6.0315065459919581E-003  0.99396849310040147        4.3355615852045407E-002 0.12363286316394806 
0.4    0.14306117311933045       -9.7359372127941744E-016  -4.7610001923877885        7.8590297691713221E-003  0.99214096535274854        5.0461458361696160E-002 0.12361758947372437 
0.45   0.14294384219048728       -2.1016125424297963E-015  -4.7356998283569736        1.0642607323598752E-002  0.98935739642474985        5.8199377786065688E-002 0.12360014021396637 
0.5   0.14286007242663198       -2.6925042146038501E-015  -4.6062722520369253        2.4882322053329159E-002  0.97511767393178683        6.1732135401893200E-002 0.12358045578002930 
0.55  0.14279504015472208       -9.4139500738818329E-016  -4.6193362905155499        2.3445008994447170E-002  0.97655499311734140        6.9874423251233636E-002 0.12355848401784897 
0.6   0.14259493711876442       -6.6430864343951025E-015  -4.6344418090832162        2.1783083949005362E-002  0.97821691523439103        9.2026751962434636E-002 0.12353413552045822 
0.65  0.14234811892976196        3.0882298884422795E-015  -4.6519186227312659        1.9860277374608500E-002  0.98013972927824156       0.11565009012448699 0.12350733578205109 
0.7   0.14191050012416540       -3.7159941785468479E-015  -4.6234674613464763        2.2990496860568289E-002  0.97700950034475620       0.13041259931772023 0.12347797304391861 
0.75  0.14144827236395743       -9.5760241990893230E-015  -4.6123191592142945        2.4217034532234897E-002  0.97578296959351352       0.16085607420948589 0.12344592809677124
0.8   0.14022523608518639       -7.9900735687630032E-015  -4.6203613631282510        2.3332231022516099E-002  0.97666776350258822       0.11706894889874254  0.12341107428073883 
0.85  0.13963091685404863       -3.9582444278702154E-015  -4.6212647295072697        2.3232849887343053E-002  0.97676714139575138       0.32930869721959188  0.12337324768304825 
0.9   0.13919642380526634        4.7786651241234778E-015  -4.3682490271315606        5.1069839021111743E-002  0.94893015514321255       0.28787300191675269 0.12333226203918457
0.95  0.13864484613239716        4.5726532029082691E-015  -4.4587070394613972        4.1117571781282176E-002  0.95888244102225850       0.28400197781311054  0.12328789383172989 
1.0   0.13681958260105354       -1.1007289586898411E-013  -4.5790885377026553        2.7873095039685544E-002  0.97212687995528924       0.14892449593031135  0.12323989719152451
1.05   0.13640489810520420        2.1681193675212604E-014  -4.4759423864271382        3.9221319405388422E-002  0.96077867939111850       0.37571145112649651 0.12318794429302216
1.1   0.13405153344796394        8.0074750995692810E-014  -4.5951236733525205        2.6108910057640634E-002  0.97389109732480772       0.13890126408900455 0.12313167005777359
1.15  0.13357445290534412       -3.8743188874623756E-014  -4.4957463252457996        3.7042469346401451E-002  0.96295754763036878       0.43192037864832883  0.12307060509920120
1.2   0.13300159763318317       -9.0049190370504806E-014  -4.3795913954599976        4.9821947117238689E-002  0.95017805272587441       0.28121570412208591 0.12300416827201843 
1.25 0.12978706331973480        7.6052443843556005E-015  -4.3979057226703731        4.7806969807203031E-002  0.95219304324982690       0.22799259804603983 0.12293162941932678
1.3  0.13057552791104846        3.4326537315719346E-014  -4.3632925422859463        5.1615156090596831E-002  0.94838483979688670       0.13212042510998492 0.12285201251506805 
1.35  0.13019203064381740        1.5347549778955643E-013  -4.2361586993514466        6.5602508115406397E-002  0.93439746956651848       0.21627895489595825 0.12276401370763779
1.4  0.12934285541591881       -5.3361324875347016E-013  -4.0245707665818218        8.8881588544087314E-002  0.91111840965934121       0.36107796209430970  0.12266579270362854 
1.45  0.12741463545208981        2.0645248599079218E-013  -4.3134144498649825        5.7102793236508499E-002  0.94289721268461113       0.24280636482415408 0.12255463004112244 
1.5  0.12638731583486559       -1.1130125406702399E-012  -4.1340028451362869        7.6841798758807450E-002  0.92315819263552346       0.30677431439324698 0.12242614477872849 

