! Data for the pre committor state (committor to R from L) for various coupling strengths for dominant thermal transition pathways
! Factor multiplying labmda, average energy, average Q_c, average Q_t, diabatic state 2 character, diabatic state 1 character, forward committor, energy of lowest eigenstate in system 

0.05 0.14418801513756718       -2.2969331967046882E-016  -4.8306305647748164        1.9824622669943712E-004  0.99980175696549978        4.9964144297642626E-003 0.12368100881576538 
0.1 0.14401843403453443       -8.0780866844470375E-017  -4.8258873499002037        7.2009361470028546E-004  0.99927991147153727        1.2504477813101112E-002 0.12367803603410721 
0.15 0.14384614247114419        5.5268067824177283E-016  -4.8162663749363173        1.7786035677453903E-003  0.99822138913334746        1.9339867860596025E-002 0.12368100881576538
0.2 0.14368254361752308        6.0404571106691229E-016  -4.8108783121368051        2.3714044565396556E-003  0.99762858921485187        2.5457808015232893E-002 0.12366608530282974 
0.25 0.14352544872256745       -6.1648109850491700E-016  -4.8023126635961706        3.3137986122252177E-003  0.99668620549052334        3.1255939271820597E-002 0.12365707755088806 
0.3    0.14337132359156218        8.9843480881430578E-016  -4.7912204385884127        4.5341821848735413E-003  0.99546581890587649        3.7086209208105743E-002  0.1236460 
0.35     0.14321606073694598       -1.5569410486185048E-015  -4.7776109246093030        6.0315067098863509E-003  0.99396849293650558        4.3355616941185483E-002    0.12363286316394806 
0.4     0.14306118446527444        1.1945302562789461E-015  -4.7609991333599826        7.8591462842899657E-003  0.99214084883763465        5.0461865903964662E-002   0.12361758947372437 
0.45    0.14294385107408655        2.4563213425693081E-017  -4.7356995848224503        1.0642634117480418E-002  0.98935736963084864        5.8199660597489808E-002   0.12360014021396637 
0.5   0.14286007446875390        1.6906359296732007E-015  -4.6062717219677705        2.4882380371969565E-002  0.97511761561313970        6.1732235811939005E-002   0.12358045578002930 
0.55   0.14279504018886818       -3.9433687808069947E-015  -4.6193362709432053        2.3445011147812552E-002  0.97655499096397225        6.9874424616937020E-002   0.12355848401784897 
0.6   0.14259493711835591        2.3157319846482729E-015  -4.6344418090885409        2.1783083948420223E-002  0.97821691523497711        9.2026751958565661E-002  0.12353413552045822 
0.65  0.14234811892656821       -4.1211959489892104E-015  -4.6519186225700331        1.9860277392347858E-002  0.98013972926050230       0.11565008996695678        0.12350733578205109 
0.7   0.14191050015796755       -1.0265888071662623E-015  -4.6234674547821770        2.2990497582779459E-002  0.97700949962254668       0.13041260483810019       0.12347797304391861 
0.75  0.14144827236314500       -2.6643166959353071E-015  -4.6123191592517188        2.4217034528115165E-002  0.97578296959763067       0.16085607416288536         0.12344592809677124
0.8   0.14022523609174889       -8.5059076780210507E-016  -4.6203613630078602        2.3332231035762090E-002  0.97666776348934137       0.11706894869724518         0.12341107428073883 
0.85  0.13963091685344098        2.5870026980171685E-015  -4.6212647295199289        2.3232849885950577E-002  0.97676714139714338       0.32930869720947653          0.12337324768304825 
0.9   0.13919642380341224        4.5897449246785867E-015  -4.3682489925259569        5.1069842828448578E-002  0.94893015133587466       0.28787300263638377       0.12333226203918457
0.95  0.13864484613348635       -1.4995803669148777E-014  -4.4587070395057804        4.1117571776398992E-002  0.95888244102714248       0.28400197769879093       0.12328789383172989 
1.0   0.13681958244871761       -6.3478786481468091E-015  -4.5790885481362968        2.7873093890388424E-002  0.97212688110320478       0.14892449191893237      0.12323989719152451
1.05   0.13640489800338754        3.9592612353688925E-014  -4.4759423913825396        3.9221318860190695E-002  0.96077867993631449       0.37571146141881212         0.12318794429302216
1.1   0.13405153313687840       -1.2673386874195377E-014  -4.5951236941657854        2.6108907759318376E-002  0.97389109961461595       0.13890125430677358       0.12313167005777359
1.15   0.13357445277605301        5.6371753578774010E-016  -4.4957463315777817        3.7042468649751852E-002  0.96295754832701597       0.43192038271595662       0.12307060509920120
1.2   0.13300159716671148        1.0524710902758780E-014  -4.3795914133578409        4.9821945083172239E-002  0.95017805470765382       0.28121570952790009       0.12300416827201843 
1.23 0.13299658308236764       -6.2139019688344193E-014  -4.2294932386321733        6.6335878041720822E-002  0.93366412348684902       0.35981294731794006      0.12296143174171448 
1.24 0.13293762338484175       -1.2729345132968189E-014  -4.1818404410325316        7.1578660235808805E-002  0.92842132670847299       0.38274732598108868      0.12294666469097137 
1.245 0.13288862581175334        5.2944497915348929E-015  -4.1598164802920081        7.4001746761782339E-002  0.92599825290277926       0.39163857085859094        0.12293918430805206
1.25  0.12978706310512877        2.1408843825849344E-014  -4.3979057305204083        4.7806968943533347E-002  0.95219304411349459       0.22799259788682932        0.12293162941932678
1.255 0.13279915429886485        4.5577354682521108E-014  -4.1199050588031660        7.8392838030765022E-002  0.92160716425787204       0.40567419130608673        0.12292400747537613 
1.26 0.13277584853295044        2.5004936057252923E-014  -4.1086679899939416        7.9629143516978210E-002  0.92037085851980671       0.41358708611934519      0.12291630357503891
1.27 0.13091110231659028       -1.1386442199806818E-014  -4.4072137055290304        4.6782918156945401E-002  0.95321709481855499       0.10966718799435439       0.12290069460868835
1.3 0.13057552859133126        3.4169491375728717E-014  -4.3632924502120130        5.1615166220650564E-002  0.94838482966683713       0.13212035718650442       0.12285201251506805 
1.35   0.13019203064404430       -3.3384880220899618E-015  -4.2361586993041556        6.5602508120599118E-002  0.93439746956130809       0.21627895491178076       0.12276401370763779
1.4   0.12934285538275603        7.6597171210556058E-014  -4.0245713548000062        8.8881526102727468E-002  0.91111846685753717       0.36107468745762128       0.12266579270362854 
1.45   0.12741463545209925       -8.8653208222170692E-014  -4.3134144498633553        5.7102793236683470E-002  0.94289721268442883       0.24280636482509307        0.12255463004112244 
1.5   0.12638731502221079       -7.8504110323786998E-014  -4.1340047674919793        7.6841575690341751E-002  0.92315842831588968       0.30676334083723117       0.12242614477872849 

