! Data for the post committor state (committment to R from L) for various coupling strengths for dominant thermal transition pathways
! Factor multiplying labmda, average energy, average Q_c, average Q_t, diabatic state 2 character, diabatic state 1 character, forward committor, energy of lowest eigenstate in system 

0.05 0.14432069876522757       -2.3977182549421984E-016   4.2549421277731474       0.99980036066247802        1.9963969290847522E-004  0.99467334220436954  0.12368100881576538 
0.1 0.14414985883384712        3.3028643892677574E-015   4.2502431709530741       0.99928336063084411        7.1663309465633154E-004  0.98685908552280144 0.12367803603410721 
0.15 0.14397578038057832       -5.4519682554197999E-015   4.2416258836080010       0.99833529237774299        1.6647118876887783E-003  0.97995915996243577 0.12367306649684906
0.2 0.14381175648256184        5.1907221776463992E-015   4.2351909641366063       0.99762732528838105        2.3726813506807498E-003  0.97369920058011250 0.12366608530282974 
0.25 0.14365437853626303       -1.0430679610077286E-015   4.2257398041537844       0.99658749546954817        3.4125070500617091E-003  0.96796713854877126 0.12365707755088806 
0.3  0.14350076446686164       -4.5637066811603962E-015   4.2136266946709728       0.99525477674162022        4.7452128174954884E-003  0.96217174438135589 0.12364601343870163 
0.35  0.14334641603495615        9.9280660932784384E-016   4.1984243953499139       0.99358223621760033        6.4177714856592872E-003  0.95600588631475103 0.12363286316394806 
0.4   0.14319537036391708       -3.4666060145646822E-015   4.1757053847910424       0.99108265433807641        8.9173432638111234E-003  0.94905353878466425 0.12361758947372437 
0.45  0.14307883278366132        5.7907210917849620E-015   4.1515391952346956       0.98842388378775303        1.1576116262986685E-002  0.94157688901614445 0.12360014021396637 
0.5  0.14298792818833625       -1.4234149699937966E-016   4.0422855412679866       0.97640369527297688        2.3596303646275948E-002  0.93702943456855792  0.12358045578002930 
0.55 0.14293150250800990       -2.2635563319687364E-014   4.0396003047276352       0.97610826817922514        2.3891727101616762E-002  0.92816233285019056 0.12355848401784897 
0.6  0.14274135861430057        7.7400106425632899E-015   4.0436221841201059       0.97655076617402869        2.3449236301569726E-002  0.91635671184528156 0.12353413552045822 
0.65 0.14253740876422319        1.3932025482430104E-014   3.9562182116759415       0.96693450794728764        3.3065494393688909E-002  0.89797681557333930 0.12350733578205109 
0.7 0.14217906918812176        2.6652804791256678E-014   3.7002597096612453       0.93877373603420622        6.1226260236014143E-002  0.87773650147989346 0.12347797304391861 
0.75 0.14174827053605296       -3.2717225673560703E-016   3.5049948901470458       0.91729054046025038        8.2709459650536041E-002  0.85634438472617269 0.12344592809677124
0.8   0.14114250498720421       -1.9879289631164180E-015   1.2077634428890982       0.66454729091431486       0.33545272525099795       0.78110928767724586 0.12341107428073883 
0.85  0.13988004383840819        4.0988965289936556E-014   3.3868243323921456       0.90428932600354994        9.5710674523122818E-002  0.72402299750554799 0.12337324768304825 
0.9  0.13926870587546544        1.7020425746280673E-014   3.6630996846511255       0.93468534972194617        6.5314636708092733E-002  0.74977032226283202 0.12333226203918457 
0.95  0.13881379473554314       -1.1031202725116355E-013   3.5620876125222054       0.92357192743643568        7.6428070010506485E-002  0.76531901414163250 0.12328789383172989 
1.0  0.13771694714590288       -3.6768675659595453E-014   1.5884225835499903       0.70642770541952560       0.29357229503132770       0.78531390880490104 0.12323989719152451 
1.05   0.13663603587890744        2.4570625923689333E-014   3.1908329150219581       0.88272617612793547       0.11727381038635989       0.70113571096983485 0.12318794429302216
1.1   0.13509073395178267       -1.3905361692090502E-014   1.1644854622078635       0.65978578872838067       0.34021420797070512       0.75387957626501723 0.12313167005777359 
1.15 0.13370121721681541       -7.7205908673375138E-014   3.2022846043850826       0.88398609363375158       0.11601389585835721       0.72132718078766511  0.12307060509920120
1.2  0.13314098062202548       -1.4211431545114171E-014   3.0160473927153522       0.86349613622011490       0.13650385151177535       0.80684018787231859 0.12300416827201843 
1.25 0.12981513280954995       -7.6214059237121370E-014   3.4254024074033635       0.90853372165098634        9.1466278445519980E-002  0.85260325101290257 0.12293162941932678
1.3  0.13234377732391905        1.8418624238076701E-014  -2.0785057165302150       0.30298925492761092       0.69701073555839699       0.64167280324886355 0.12285201251506805 
1.35  0.13141848469371323       -3.2706647908596446E-014  -3.0901388476935628E-002  0.52826835917039328       0.47173165008226936       0.72070554277952759 0.12276401370763779
1.4  0.13007154161028062        2.1587328842965872E-013  0.58182796943871828       0.59568134224853275       0.40431866625015944       0.72141996909989414 0.12266579270362854 
1.45   0.12899220540434159        1.7631421937093623E-012  -2.4772768384065587       0.25911612786791438       0.74088387571074066       0.64363519557518889 0.12255463004112244 
1.5  0.12736855297099467        9.5936223626783889E-013  -2.2639398595547346       0.28258765076487224       0.71741236832054389       0.58751228979757952 0.12242614477872849 

