# Index, energy of eigenstate along relaxation path to eigenstate L for \lambda=1.3\lambda_0 from vertical excitation

           2  0.14679932594299316       
           3  0.14636965095996857      
           4  0.14586924016475677     
           5  0.14482593536376953    
           6  0.14351500570774078   
           7  0.14242334663867950  
           8  0.14148551225662231    
           9  0.14013159275054932   
          10  0.13925531506538391  
          11  0.13800147175788879 
          12  0.13748960196971893   
          13  0.13570205867290497  
          14  0.13454309105873108 
          15  0.13264350593090057     
          16  0.13050073385238647    
          17  0.12812064588069916   
          18  0.12562963366508484  
