# Index, energy of eigenstate along relaxation path to eigenstate 1 for \lambda=1.3\lambda_0 from vertical excitation
           2  0.14679932594299316       
           3  0.14636965095996857      
           4  0.14586924016475677     
           5  0.14482593536376953    
           6  0.14351500570774078   
           7  0.14280369877815247  
           8  0.14119032025337219 
           9  0.14092881977558136 
          10  0.14007356762886047 
          11  0.13888242840766907 
          12  0.13780519366264343     
          13  0.13661821186542511    
          14  0.13547730445861816   
          15  0.13454309105873108  
          16  0.13396409153938293 
          17  0.13233630359172821     
          18  0.13025690615177155     
          19  0.12794083356857300    
          20  0.12547373771667480   
          21  0.12285201251506805  
